Time (s),Acceleration x (m/s^2),Acceleration y (m/s^2),Acceleration z (m/s^2),Absolute acceleration (m/s^2)
40.00330586,-0.2944868207,-9.562441826,-1.230619669,9.645799134
40.00786194,-0.7469909191,-9.454702377,-1.386242747,9.584939302
40.01328494,-1.182735682,-9.255983353,-1.522712231,9.454667845
40.01828748,-1.63763392,-8.995016098,-1.491587639,9.263746172
40.02284563,-2.032677174,-8.70771122,-1.355118155,9.043912671
40.02829755,-2.300827742,-8.528146744,-1.256955862,8.922053195
40.03330255,-2.384624958,-8.327033043,-1.058237195,8.726155021
40.03830771,-2.501940727,-8.123526573,-0.7517793179,8.533262186
40.0433124,-2.439691544,-7.893682957,-0.3136404157,8.268052719
40.04828678,-2.351106167,-7.76679039,-0.1292868853,8.115876309
40.05329109,-2.173935175,-7.596801758,-0.05985504389,7.901960119
40.05829609,-2.011129379,-7.489062786,0.06703764945,7.7546887
40.06330125,-1.78128612,-7.544129372,0.2513911724,7.755647345
40.06830617,-1.551442742,-7.702147007,0.3663128614,7.865381632
40.0733114,-1.359906554,-7.960720539,0.390254885,8.085463265
40.07831701,-1.175553083,-8.262390137,0.2753331959,8.350139172
40.08329078,-1.000776291,-8.501810074,0.05267243832,8.560671825
40.08829424,-0.8475474119,-8.757989883,-0.3280056417,8.805016247
40.09329971,-0.7182605267,-9.102754593,-0.8451532125,9.170077607
40.09830432,-0.5219359994,-9.617507935,-1.661576033,9.77393017
40.10330994,-0.2920926213,-10.08677197,-2.398990154,10.37224376
40.10831478,-0.107739076,-10.55364132,-3.136404276,11.01035806
40.11328901,0.04548983276,-10.88404083,-3.8642416,11.54975226
40.11829332,0.2274491638,-11.10670185,-4.515464306,11.99166281
40.12329886,0.3136404157,-11.18092155,-4.814739704,12.17756525
40.12830401,0.3184288144,-11.13303757,-4.845864296,12.14612379
40.13330924,0.2609679997,-10.98699188,-4.611232281,11.91828671
40.13831324,0.04788403213,-10.67574501,-3.995922565,11.39917635
40.14328832,-0.1292868853,-10.45787334,-3.411737442,11.00108096
40.14829201,-0.1651999205,-10.3357687,-2.930502892,10.74445219
40.15329855,-0.1268926859,-10.32379818,-2.583343744,10.642865
40.1583044,0.1915361285,-10.48181534,-2.446874142,10.76533009
40.1633074,0.653617084,-10.7140522,-2.48996973,11.01898721
40.16831271,1.398213744,-10.9295311,-2.365471363,11.26965423
40.17328624,2.291250944,-11.20965195,-2.245761156,11.65974146
40.17829078,3.598485231,-11.44667816,-2.011129379,12.16635435
40.18329701,4.515464306,-11.50413895,-1.721431017,12.47789868
40.18830101,5.171475887,-11.54005241,-1.156399369,12.69859174
40.19330709,5.583278179,-11.67891598,-0.4189853072,12.95166485
40.19831078,5.566518784,-11.85369301,0.09097966552,13.09597062
40.2033164,5.121197224,-12.09790134,0.282515794,13.14023185
40.20829017,4.369418144,-12.39238834,0.1125274822,13.14061514
40.21329602,3.335123062,-12.74912453,-0.4213795066,13.18486946
40.2183004,2.449268341,-12.97657299,-1.055842996,13.24783629
40.22330471,1.455674648,-13.14416695,-1.82198751,13.34944762
40.22831086,0.390254885,-13.29979038,-2.494758129,13.53737571
40.23331478,-1.012747288,-13.57033539,-3.201047659,13.97949805
40.23829017,-1.862688899,-13.81933212,-3.543418407,14.38747248
40.24329424,-2.554613113,-14.05396366,-3.816357613,14.78528079
40.24829886,-3.181894064,-14.12100124,-4.086902142,15.04094063
40.2533044,-3.773261786,-14.08030033,-4.331110954,15.20693539
40.25830902,-3.988739967,-14.08748245,-4.484339714,15.31262587
40.26331332,-3.799597979,-14.14494324,-4.750096321,15.3973952
40.26828809,-3.236960649,-14.25507736,-4.65193367,15.34032698
40.2732924,-2.279279947,-14.41069984,-4.077325344,15.14886032
40.27829702,-1.369483352,-14.53998661,-3.359065056,14.98566026
40.28330224,-0.5937620401,-14.63336086,-2.41335535,14.84291371
40.2883074,0.02154781483,-14.65969658,-1.719036818,14.76015771
40.29331232,0.6153098345,-14.40830612,-1.52510643,14.50185647
40.29828648,0.6775590777,-13.89355278,-1.601720929,14.00197861
40.30284409,0.2920926213,-13.10825443,-1.702277422,13.22155062
40.30784932,-0.2705447972,-12.49055004,-1.841141105,12.62841381
40.31330094,-0.8978256583,-12.20324612,-1.549048543,12.33389063
40.31785971,-1.295263171,-12.15296745,-0.4261679053,12.22922498
40.32283271,-1.886630893,-12.33971596,1.053448796,12.52747861
40.32783848,-2.564189911,-12.83770943,1.67115283,13.19752268
40.33284278,-3.004723072,-13.38837624,2.061407566,13.87538757
40.33784655,-3.371036053,-13.98213768,3.105279684,14.71417072
40.3428524,-3.610456228,-14.17127991,4.192247391,15.21300452
40.34830463,-4.256890774,-14.03720474,5.042188644,15.51089625
40.35331055,-4.637568474,-13.90312958,5.166687489,15.54022886
40.35831486,-5.030217648,-13.85524559,4.659116745,15.45892263
40.36328863,-5.571307182,-14.04438686,3.730166197,15.56272489
40.36829355,-5.892130375,-14.73870564,2.183511972,16.02230847
40.3732994,-5.669469833,-15.452178,0.7182605267,16.47509003
40.3783034,-5.358223438,-16.08424759,-0.8283938169,16.97350333
40.38330902,-5.166687489,-16.45774269,-2.078166962,17.37442753
40.38786625,-5.011064053,-16.56069374,-2.722207308,17.51507216
40.39328717,-4.833893299,-16.33563805,-3.167528868,17.32780523
40.39829448,-4.589684486,-16.00284386,-3.509899616,17.01398279
40.40329794,-3.924096584,-15.57428169,-3.715801001,16.48526498
40.40830255,-2.770091295,-14.84644508,-3.878606796,15.59275242
40.41330709,-2.355894566,-13.99650288,-3.890577793,14.71696054
40.41786432,-2.207453966,-13.14416695,-3.112462282,13.68683306
40.42328625,-0.7948749661,-12.89038181,-0.3375824392,12.91927751
40.42829148,1.283292055,-13.15613842,2.422932148,13.43880266
40.4332964,2.45405674,-13.25669479,1.994369984,13.62864127
40.43830248,3.059789658,-13.11064816,1.498770237,13.54613303
40.44330625,3.569754839,-12.75151825,0.6607996821,13.25824361
40.44831086,3.560178041,-12.53125191,0.6153098345,13.04169269
40.45331694,3.497928619,-12.31098557,0.4884171486,12.80759234
40.45829017,3.153163671,-11.83932781,0.5219359994,12.2631375
40.46329517,2.207453966,-10.96783829,0.7158663273,11.21065539
40.46830071,1.462857246,-10.19211674,0.9433154464,10.33968273
40.47330502,0.9792284966,-9.423578262,1.465251446,9.586953505
40.47831171,0.7062895298,-8.808267593,1.800439715,9.018093261
40.48331486,0.1771709323,-7.951143742,2.106897593,8.227459742
40.48828986,-0.3998316824,-7.10599041,2.171540976,7.441139381
40.49329448,-0.7948749661,-6.375759125,2.169146776,6.781395753
40.49829855,-1.079784989,-5.882553577,2.173935175,6.363675539
40.50330409,-1.383848548,-5.264849663,2.324769735,5.919310188
40.50830771,-1.56101954,-4.766855717,2.461239338,5.587252859
40.51331363,-1.723825216,-4.299986362,2.387019157,5.211460117
40.51828748,-1.800439715,-3.90254879,2.145204782,4.803475178
40.52329179,-1.984793186,-3.552995205,1.800439715,4.45025416
40.52785079,-2.078166962,-3.471592426,1.429338455,4.291123433
40.53330309,-2.252943754,-3.452438831,1.07739079,4.260969415
40.53830717,-2.324769735,-3.507505417,0.8906430602,4.301208392
40.54286555,-2.217030764,-3.548206806,0.8643068075,4.272238664
40.54828655,-2.487575531,-3.598485231,0.8451532125,4.455492334
40.55284378,-2.770091295,-3.622427225,0.8331822157,4.635685213
40.55785048,-2.873042107,-3.612850428,0.7086837292,4.670041947
40.56330102,-3.01429987,-3.672705412,0.8978256583,4.835375855
40.56830617,-3.100491285,-3.682282209,1.144428372,4.947925301
40.57331079,-3.227383852,-3.634398222,1.340752959,5.042070553
40.57786902,-3.287238836,-3.538630009,1.549048543,5.072217749
40.58328994,-3.399766445,-3.483563423,1.640028119,5.136469433
40.58784717,-3.624821424,-3.390189648,1.656787634,5.232366718
40.59329948,-3.730166197,-3.251325846,1.666364431,5.221305395
40.59785755,-3.730166197,-3.102885485,1.63763392,5.120925995
40.60327886,-3.706224203,-2.980781078,1.618480325,5.024005597
40.60831486,-3.550601006,-2.863465309,1.575384736,4.82576814
40.61328902,-3.366247654,-2.772485495,1.48679924,4.607479904
40.61784655,-3.246537447,-2.71263051,1.285686255,4.421691851
40.62329909,-3.145981073,-2.705447912,0.9816226959,4.263827909
40.6283034,-3.141192675,-2.700659513,0.6631938815,4.195292523
40.63330832,-3.177105665,-2.719813108,0.2920926213,4.192457734
40.63831578,-3.155557871,-2.79163909,-0.2226607651,4.21904872
40.64328832,-3.100491285,-2.947262287,-0.7374141216,4.340873275
40.64829294,-3.009511471,-3.19865346,-1.319205165,4.585721919
40.65329763,-2.870647907,-3.557783842,-2.147598982,5.050804556
40.65785517,-2.621650934,-3.971980572,-3.117250681,5.689194591
40.66327763,-2.336740971,-4.522646904,-4.235342979,6.622146445
40.66831202,-2.149993181,-4.932055473,-5.145139217,7.444467707
40.67328686,-2.035071373,-5.322310448,-6.071695328,8.326703318
40.67829148,-1.972822189,-5.822698593,-7.240066051,9.498126275
40.68329663,-2.070984364,-6.232107162,-8.056488991,10.3939959
40.68785425,-2.37744236,-6.780379295,-8.693346024,11.27829955
40.69282748,-2.817975283,-7.51300478,-9.617507935,12.52528181
40.69828032,-3.481169224,-8.791508675,-11.01093388,14.51378065
40.70328563,-4.089296341,-10.18014526,-11.18810463,15.66944119
40.70828955,-4.438849926,-11.65497398,-9.660603523,15.77558454
40.7132954,-4.335899353,-13.33570385,-7.094019413,15.71515612
40.71830194,-4.278438568,-14.80095482,-6.004657745,16.53569517
40.72330563,-4.778826714,-16.39070511,-7.232883453,18.54203338
40.72831025,-5.204994678,-17.97327232,-10.09634876,21.2618613
40.73331578,-4.431667328,-20.08016968,-14.90869427,25.39925303
40.73828871,-3.303998232,-21.52866173,-20.40099335,29.84292562
40.74329325,-0.9265560508,-22.27086449,-22.99151802,32.02280144
40.74829886,2.039859772,-22.20861435,-21.00911903,30.6392993
40.75330402,4.939238071,-20.01552582,-16.26141739,26.25739976
40.75830955,5.91128397,-16.79771996,-13.17768574,22.15306018
40.76331355,5.995080948,-12.73236465,-11.5927248,18.23308459
40.76828779,6.325480938,-8.820239067,-11.5975132,15.88428905
40.77329325,6.244078159,-5.245696068,-12.48576164,14.91308429
40.77829755,5.61919117,-3.526659012,-12.12663174,13.82272876
40.78330194,4.762067318,-2.695871115,-10.87446404,12.17370011
40.78830778,2.15478158,-2.659958124,-9.447520256,10.04858696
40.79331117,-0.1580173075,-3.394978046,-7.69017601,8.407713867
40.79828955,-0.3088520169,-4.90811348,-5.123591423,7.101841773
40.80329209,-0.8619126081,-6.421248913,-3.093308687,7.179407328
40.80829702,-2.877830505,-7.800309181,-0.4836287498,8.328302859
40.81330163,-4.570530891,-9.038111687,2.025494576,10.3285935
40.81830625,-5.930437565,-10.65180302,4.223371983,12.90224276
40.82331086,-6.816292286,-12.68208599,5.128379822,15.28389431
40.82786871,-7.232883453,-14.99009705,4.584896088,17.26380273
40.83329055,-6.572083473,-18.26775932,2.920926094,19.63250165
40.83829486,-6.088454723,-21.13122368,0.7972691655,22.00530693
40.84330063,-5.363011837,-23.50866699,-2.516305923,24.24357885
40.84830471,-3.828328609,-24.74886322,-5.056553841,25.54860206
40.85330963,-2.15478158,-23.65950203,-6.081272125,24.5233968
40.85831486,-0.4860229492,-20.80800629,-7.218518257,22.02989673
40.86328894,-0.316034615,-17.03953362,-7.273584843,18.52972261
40.86829456,-2.190694571,-11.35091019,0.4764461517,11.57019039
40.87285178,-4.086902142,-7.319074631,3.837905407,9.219606308
40.87785817,-5.966350555,-4.663905144,3.100491285,8.183055441
40.88327878,-8.813055992,-2.336740971,0.3375824392,9.123830127
40.88831356,-11.35091019,-0.3950432837,-4.259284973,12.13015786
40.89284063,-11.38203526,0.2992752194,-4.884171486,12.38932699
40.89829325,-9.842563629,0.2561795712,-1.381454349,9.942338904
40.90329725,-7.735665798,-0.316034615,2.420537949,8.111683375
40.90830286,-5.09725523,-1.572990537,4.218583584,6.800937991
40.91330717,-2.987963676,-3.035847664,4.362235546,6.09699901
40.91831209,-0.9792284966,-4.742913723,6.342240334,7.979857861
40.92328709,0.3112462163,-6.289567947,11.93509579,13.49451928
40.92829179,0.1723825186,-8.042123795,15.4426012,17.41204763
40.93329632,-0.6033388376,-9.148244858,16.96052551,19.27988142
40.93830186,-1.168370485,-10.30224991,16.41704178,19.41702097
40.94330525,-1.721431017,-11.75792408,14.19761562,18.51443742
40.94786402,-1.920149803,-12.5408287,12.53364563,17.83400215
40.95328532,-1.946485996,-13.58230591,9.643844604,16.77115322
40.95829209,-1.053448796,-14.37957573,6.375759125,15.76490587
40.96329517,1.508347034,-15.41387081,-0.3471592367,15.49138611
40.96829979,4.888959885,-16.48647308,-10.05325317,19.91917726
40.97330586,7.220912457,-17.17121506,-15.7562418,24.39777365
40.97830894,6.636727333,-16.96291924,-15.19839191,23.72294028
40.98331486,3.82593441,-15.61498356,-10.24718285,19.06489554
40.98828925,2.41574955,-14.23352909,-5.374982834,15.40518214
40.99329386,1.63523972,-13.05318737,-1.436521053,13.23341612
40.99785171,0.7038952708,-12.10029507,0.356736064,12.12599975
41.00330348,-0.5961562395,-11.06599998,0.8331822157,11.11332311
41.00830779,-1.417367458,-10.17056847,0.8188169599,10.30144915
41.01331363,-2.212242365,-9.306262016,0.7134721279,9.592161981
41.0182884,-3.186682463,-8.305485725,0.3782838583,8.90388325
41.02329263,-4.086902142,-7.252037048,-0.1843535304,8.326391577
41.02829756,-4.853046894,-6.624756336,-0.4596867263,8.22500897
41.0328554,-5.355829239,-6.191405773,-0.4453215301,8.198580581
41.03827917,-5.319916248,-6.059724331,-0.3280056417,8.070276052
41.04331394,-5.305551052,-5.784391403,-0.7254431248,7.882532816
41.0482874,-4.855441093,-5.753266811,-1.024718285,7.597725632
41.05329086,-4.249708176,-5.837063789,-1.37427175,7.349826944
41.05829663,-3.105279684,-6.145915985,-1.388636947,7.024482741
41.06330125,-2.075772762,-6.466738701,-1.185129881,6.894350935
41.06830563,-1.22822547,-6.739677906,-1.015141487,6.925482533
41.0733114,-0.6272808313,-6.931213856,-0.8595184088,7.012416035
41.07831571,0.04309562966,-7.194576263,-0.7158663273,7.230231631
41.08328956,0.3998316824,-7.419631004,-0.6105214357,7.455436006
41.0882954,0.7350199223,-7.592013359,-0.5793967843,7.649485065
41.09330002,0.895431459,-7.814674377,-0.6799532771,7.895142151
41.09830494,0.8978256583,-8.128314972,-0.7829039693,8.215140523
41.10286156,0.9241618514,-8.355764389,-1.031900883,8.469810688
41.10828379,0.9385270476,-8.683769226,-1.295263171,8.829857738
41.11328963,0.988805294,-8.839392662,-1.244984865,8.981235208
41.11829571,0.8212111592,-8.880094528,-1.058237195,8.980553021
41.12329879,0.6440402865,-8.901641846,-0.9504981041,8.975380888
41.12830409,0.4381389022,-8.995016098,-0.7829039693,9.039647058
41.13330802,0.1508347094,-9.083600998,-0.7493851185,9.115708215
41.13831425,-0.3543418646,-9.059659004,-0.691924274,9.092949941
41.14328809,-0.8451532125,-8.894459724,-0.490811348,8.947993827
41.14829302,-1.206677675,-8.650250435,-0.2777273953,8.738422976
41.15329732,-1.517923832,-8.458714485,-0.2777273953,8.598318208
41.15830248,-1.623268723,-8.202534676,-0.4955997467,8.376287696
41.16286009,-1.592144132,-7.975085735,-0.8595184088,8.177755641
41.16828194,-1.491587639,-7.841010571,-1.149216771,8.063930781
41.1728394,-1.431732655,-7.824251175,-1.259350061,8.053243286
41.17829086,-1.247379065,-7.87931776,-1.343147159,8.089724791
41.1832964,-1.060631394,-8.010998726,-1.517923832,8.222234021
41.18830063,-0.8283938169,-8.171410561,-1.695094824,8.386389767
41.19330556,-0.5315127969,-8.42759037,-1.848323703,8.644251605
41.1983124,-0.2705447972,-8.736441612,-1.999158382,8.966339318
41.20328532,0.08140286058,-9.105149269,-2.135627985,9.352608007
41.20828932,0.4285621047,-9.497797966,-2.279279947,9.776857816
41.21329602,0.85473001,-10.0508585,-2.56897831,10.40912914
41.21829917,1.086967587,-10.49857426,-2.813186884,10.92316714
41.22330471,1.235408068,-10.90798283,-2.964021683,11.37082877
41.22831109,1.321599364,-11.24077702,-3.007117271,11.71086876
41.23331479,1.213860273,-11.60948372,-2.97359848,12.04557416
41.23828863,1.079784989,-11.73877048,-2.889801502,12.13736466
41.24329363,0.962469101,-11.71004009,-2.767697096,12.07110322
41.24785109,0.7900865674,-11.54962921,-2.516305923,11.84693915
41.25330402,0.6871358752,-11.33654499,-2.035071373,11.53823745
41.25830779,0.7038952708,-11.16895103,-1.881842494,11.34822748
41.26331394,0.7445967197,-10.98699188,-2.097320795,11.2101369
41.26828809,0.7230489254,-10.84573364,-2.487575531,11.15081925
41.27329294,0.7254431248,-10.78827286,-2.93529129,11.20397402
41.27785148,0.8403648138,-10.84812832,-3.100491285,11.3137592
41.28330248,1.278503656,-11.0229044,-3.035847664,11.50458013
41.2883074,1.831564307,-11.20965195,-2.329558372,11.59473013
41.29331179,2.331952572,-11.40118885,-1.606509328,11.74759474
41.29783917,2.918531895,-11.68370438,-0.9265560508,12.078298
41.30329171,3.442862034,-12.04283428,-0.3663128614,12.53065607
41.3082964,3.950432777,-12.66532707,-0.0287304204,13.26714945
41.31330063,4.144362926,-13.18247414,0.02394201607,13.81860853
41.31830679,4.134786129,-13.69722748,-0.1891419291,14.30895774
41.32331086,3.890577793,-14.13776112,-0.6943184733,14.6797467
41.32831579,3.404554844,-14.4849205,-1.651999116,14.97107266
41.33328994,2.863465309,-14.66209126,-2.56658411,15.15795855
41.33829486,2.176329374,-14.76264763,-3.435679436,15.3126114
41.3433004,1.304839969,-14.83686829,-4.086902142,15.44467666
41.34830471,0.1604115069,-14.98530865,-4.67827034,15.69940828
41.35286286,-0.691924274,-15.02361584,-4.94402647,15.83133569
41.35828617,-1.647210717,-14.90390587,-5.035006046,15.81742707
41.36328894,-2.545036316,-14.62617779,-5.011064053,15.66885604
41.36784556,-3.069366693,-14.43703651,-4.884171486,15.54683782
41.37329979,-3.136404276,-14.27662468,-3.971980572,15.14713417
41.3783034,-2.841917515,-14.25986576,-3.19625926,14.88745579
41.38330863,-2.147598982,-14.28859615,-2.370259762,14.64220929
41.38786656,-1.616086125,-14.35563374,-1.877054095,14.56774816
41.39328871,-0.7781155705,-14.43224812,-1.489193439,14.52972631
41.39829294,-0.2729389966,-14.32211494,-1.362300754,14.38934799
41.40329794,0.004788403399,-13.8313036,-1.036689281,13.87010118
41.40830279,-0.2777273953,-13.25908947,-0.5937620401,13.27528303
41.41330779,-0.8810662031,-12.87841129,-0.1340752989,12.9092111
41.41831179,-1.541865945,-12.6485672,1.204283476,12.79898049
41.42328625,-2.195482969,-13.00530338,3.023876667,13.53151476
41.42829232,-3.016694069,-13.45541382,3.737348795,14.2869304
41.4332954,-3.727771997,-13.78581333,3.933673382,14.81278905
41.43830133,-4.503493309,-13.96059036,4.352658749,15.30114942
41.44330648,-5.480327606,-13.98453236,5.015852451,15.83540059
41.44831117,-6.191405773,-13.97256088,5.056553841,16.09766131
41.45286894,-6.861782074,-14.01326275,4.721365929,16.30174476
41.45829017,-7.730877399,-14.09705925,3.907337189,16.54571935
41.46329548,-8.846575737,-14.40112305,2.487575531,17.08339191
41.46829971,-9.404424667,-14.7841959,0.7254431248,17.53687314
41.4733044,-9.402029991,-15.452178,-1.795651317,18.17669763
41.47830994,-9.313444138,-16.21592903,-4.173093796,19.16014895
41.4833151,-9.004592896,-17.10178185,-5.784391403,20.17455872
41.48828925,-8.451532364,-17.42499924,-6.253654957,20.3510982
41.49329456,-8.173804283,-17.40824127,-6.169857979,20.19715545
41.49829879,-8.238448143,-16.99164963,-5.566518784,19.68690723
41.50330317,-8.295908928,-15.97171974,-4.833893299,18.63556978
41.50786194,-7.817068577,-15.11938381,-3.924096584,17.46713663
41.51328348,-6.622362137,-14.22395229,-3.529053211,16.08199974
41.51784248,-5.439626217,-13.26148319,-3.229778051,14.69312547
41.52329363,-3.722983599,-12.71081638,0.2418143749,13.24703492
41.52829817,-0.9911994934,-13.18726254,4.707000732,14.03717299
41.53330256,1.654393315,-13.77623653,6.02620554,15.12735481
41.53830771,3.612850428,-13.81933212,3.193865061,14.63650923
41.54331202,4.292803764,-13.541605,0.7493851185,14.22549852
41.54828656,4.611232281,-13.03164005,-0.720654726,13.84219812
41.55329171,4.307168961,-12.45224285,-1.312022567,13.24127863
41.55829663,4.13239193,-11.74595356,-0.7015010715,12.47141499
41.56285363,4.141968727,-11.34851646,0.03830722719,12.08081944
