Time (s),Acceleration x (m/s^2),Acceleration y (m/s^2),Acceleration z (m/s^2),Absolute acceleration (m/s^2)
50.003288,0.8834604025,-10.79784966,-2.889801502,11.21271654
50.00829254,0.6703764796,-10.69011021,-2.370259762,10.97023209
50.01329754,0.4094084799,-10.60391903,-1.721431017,10.75053668
50.01827254,0.3519476354,-10.6111021,-1.314416766,10.69799264
50.02327685,0.4261679053,-10.60631371,-1.496376038,10.71982513
50.02828177,0.5506663918,-10.59913063,-2.166752577,10.83234141
50.03328577,0.6344634295,-10.57279491,-2.956839085,10.99679196
50.03829285,0.7996633649,-10.58716011,-3.579331636,11.20442036
50.04329623,1.142034173,-10.6254673,-3.531447411,11.25503968
50.04827131,1.546654344,-10.74757099,-2.980781078,11.25999457
50.052828,1.989581585,-10.87685871,-2.133233786,11.26122448
50.05783439,2.30561614,-11.08275986,-1.015141487,11.36547157
50.06283785,2.56658411,-11.38442898,0.06943184882,11.67036409
50.06825939,2.844311714,-11.90397072,0.6751648784,12.25767007
50.07284793,3.045424461,-12.35886955,0.5674257874,12.74120241
50.07827039,3.169923067,-12.76109505,0.1244984865,13.14950413
50.0832747,3.215412855,-13.13698483,-0.9864110947,13.56068792
50.08827908,3.047818661,-13.33570385,-2.020706177,13.82799513
50.09328423,2.652775526,-13.48174953,-3.002328873,14.06445048
50.09829008,2.109291792,-13.69962215,-4.019864559,14.43218868
50.10329346,1.197100878,-13.95580196,-4.527435303,14.72056824
50.10829877,0.3806780577,-14.32450867,-4.443638325,15.00274595
50.11327254,-0.3351882398,-14.46816063,-4.108449936,15.04391518
50.11827877,-0.921767652,-14.58547688,-3.801992416,15.10102439
50.12328339,-1.331176162,-14.68842697,-3.725377798,15.21184922
50.1282877,-1.465251446,-14.8584156,-3.892971992,15.4296697
50.13284554,-1.221042871,-14.89911747,-3.816357613,15.4285201
50.13826739,-0.6224924326,-14.80574322,-3.356670856,15.19423471
50.14327193,0.05506663769,-14.75785923,-3.01429987,15.06265067
50.14827693,0.8355764151,-14.68363857,-2.367865562,14.89678546
50.15328177,1.185129881,-14.45140171,-1.802833915,14.61156235
50.15828862,1.352723956,-14.12339592,-1.381454349,14.25512506
50.162844,1.297657371,-13.58948898,-1.051054597,13.69170702
50.16781877,0.8810662031,-12.98136139,-0.7852981687,13.0349037
50.17282239,0.08858546615,-12.52885723,-0.6440402865,12.54571237
50.178276,-1.048660398,-12.45463753,0.0359130241,12.49875891
50.18327962,-1.661576033,-12.57195282,1.125274777,12.73110663
50.18828546,-2.183511972,-12.96220779,2.114080191,13.31374818
50.19328923,-3.093308687,-13.57512379,3.112462282,14.26674335
50.19784885,-3.624821424,-13.92228317,3.667917013,14.84664657
50.2032707,-4.774038315,-14.21676922,4.165910721,15.56479299
50.20827416,-5.91128397,-14.37239265,4.589684486,16.20413998
50.2132787,-6.900089264,-14.53280449,4.582501888,16.72761076
50.21828493,-7.524975777,-14.98291397,3.7181952,17.17375751
50.22284154,-7.951143742,-15.30134296,2.425326347,17.41361511
50.227816,-8.219294548,-16.04354477,0.7086837292,18.04035377
50.23326854,-7.970297337,-16.75222969,-1.024718285,18.57990546
50.23827531,-7.647080421,-17.50400925,-2.717418909,19.29384731
50.24327754,-7.558494568,-17.87750435,-3.287238836,19.68608496
50.24828239,-7.565677166,-17.89905167,-3.404554844,19.7283176
50.25328823,-7.572859764,-17.57583427,-3.416525841,19.44044249
50.25829346,-7.448361397,-16.95812988,-3.325546265,18.81795724
50.26329693,-6.789956093,-16.01481438,-3.227383852,17.6916305
50.26827254,-6.004657745,-15.11459541,-3.351882458,16.60548178
50.27327654,-5.516240597,-14.05635834,-3.768473387,15.56314594
50.27828277,-5.305551052,-13.01248646,-3.739742994,14.54164205
50.28328646,-3.995922565,-12.33971596,-1.125274777,13.01930222
50.28829162,-1.78128612,-12.43069553,3.016694069,12.91493766
50.29329539,0.1987187415,-12.67490387,5.781997204,13.93284497
50.29827131,2.056619167,-12.91671848,4.685452938,13.89333538
50.3032747,2.887407303,-12.82573891,2.468421936,13.37646464
50.30828054,2.968810081,-12.51209831,0.6703764796,12.87695003
50.31328554,3.117250681,-12.18648624,-0.4716577232,12.58769875
50.31829139,3.289633036,-11.67412758,-0.5841852427,12.14282556
50.32329508,3.330334663,-11.09951878,-0.009576806799,11.58837943
50.32830054,2.731784105,-10.34774017,0.55784899,10.71678901
50.33327446,2.207453966,-9.792284966,1.012747288,10.08897195
50.33828031,1.67115283,-9.066842079,1.417367458,9.327877979
50.34328362,1.039083481,-8.176198959,1.778891921,8.431748358
50.348288,0.1675941199,-7.266402245,1.996764183,7.53762274
50.35329416,-0.4046200812,-6.095637321,2.317587137,6.533890258
50.35829962,-0.7350199223,-5.245696068,2.559401512,5.882866446
50.36327377,-0.9935936928,-4.505887508,2.655169725,5.32354928
50.36827816,-1.544260144,-3.876212597,2.667140722,4.952110976
50.37328246,-1.994369984,-3.232172251,2.418143749,4.502429153
50.37828854,-2.030282974,-2.920926094,1.987187386,4.074649912
50.38329346,-1.951274395,-2.717418909,1.520318031,3.674670626
50.38785046,-1.960851192,-2.669534922,1.26413846,3.545334983
50.39282516,-2.169146776,-2.612074137,1.053448796,3.554980084
50.39783039,-2.367865562,-2.408566952,0.7972691655,3.470391938
50.40283539,-2.533065319,-2.394201756,0.7302315235,3.561159928
50.40828639,-2.461239338,-2.535459518,0.7733271718,3.617221166
50.41329162,-2.367865562,-2.717418909,0.8331822157,3.699370954
50.41829685,-2.382230759,-3.004723072,0.9457096457,3.949398797
50.42282339,-2.360682964,-3.177105665,0.8786720037,4.054489975
50.42827531,-2.243366957,-3.315969467,0.8643068075,4.095775271
50.43328,-2.281674147,-3.349488258,1.012747288,4.177411348
50.438287,-2.444479942,-3.263296843,1.15400517,4.237489399
50.443291,-2.535459518,-3.155557871,1.271321058,4.242918533
50.4482957,-2.607285738,-3.08133769,1.393425345,4.270153987
50.45329931,-2.669534922,-2.980781078,1.534683347,4.285641785
50.45827354,-2.693476915,-2.880224705,1.577778935,4.247340181
50.46327908,-2.547430515,-2.813186884,1.697489023,4.157510272
50.46828424,-2.382230759,-2.741360903,1.704671621,4.011980599
50.47284208,-2.164358377,-2.736572504,1.584961534,3.832150743
50.47826647,-2.00873518,-2.774879694,1.419761658,3.708193294
50.48329931,-1.805228114,-2.880224705,1.163581967,3.592835355
50.48827316,-1.788468719,-2.956839085,0.9145850539,3.574630547
50.49327747,-1.917755604,-2.990357876,0.6009446383,3.602937862
50.49828393,-2.099714994,-2.997540474,0.2920926213,3.67142616
50.5032877,-2.243366957,-3.007117271,-0.05267243832,3.752095944
50.50829262,-2.401384354,-3.126827478,-0.6751648784,3.999943063
50.51329747,-2.557007313,-3.227383852,-1.41018486,4.352345835
50.51827224,-2.542642117,-3.402160645,-2.205059767,4.785604931
50.52327693,-2.372653961,-3.670311213,-2.97599268,5.2874572
50.52828031,-2.169146776,-4.067748547,-4.206612587,6.240782437
50.533287,-2.126051188,-4.390965939,-5.42765522,7.297952913
50.53829231,-2.293645144,-4.817133904,-6.785167694,8.631575043
50.54329693,-2.516305923,-5.305551052,-8.111555099,10.01389003
50.5482707,-2.645592928,-6.007051945,-9.670180321,11.68743866
50.553276,-2.549824715,-7.101202011,-11.36767006,13.64377509
50.55828339,-2.353500366,-8.113949776,-12.20324612,14.84231656
50.5632867,-2.343923569,-9.21528244,-12.43069553,15.65048241
50.568291,-1.8602947,-10.29985619,-12.69166279,16.45071543
50.57284762,-1.656787634,-11.57357121,-12.53843403,17.14365257
50.57827039,-2.592920542,-13.85524559,-11.6813097,18.30694031
50.58327508,-2.968810081,-16.13931274,-11.79623222,20.20995655
50.58828,-2.995146275,-18.77532959,-13.30936718,23.20825623
50.59328462,-2.856282711,-21.67470741,-16.13931274,27.17404475
50.59784177,-2.11647439,-24.49268341,-19.46246529,31.35535934
50.60326393,-0.5147533417,-26.12313461,-20.25015831,33.05680028
50.60829847,0.3208230138,-25.20615578,-17.24543571,30.54272859
50.61282554,1.04147768,-22.90772247,-13.2423296,26.480327
50.61783077,1.034295082,-19.28768921,-10.30943298,21.89449999
50.6232827,0.9289502501,-13.72356415,-9.169792175,16.5313112
50.62784085,0.9121908545,-9.351752281,-10.20408726,13.87122055
50.63281562,1.065419793,-5.966350555,-11.34372807,12.86128394
50.63826924,1.256955862,-3.742137194,-11.52568722,12.18297971
50.64327231,1.130063176,-2.097320795,-9.679757118,9.968625541
50.64827693,0.3926490843,-1.968033791,-7.769184589,8.024185908
50.65328216,-0.9433154464,-2.729389906,-6.10042572,6.749415327
50.65828824,-2.940079689,-3.995922565,-4.924872875,6.990410472
50.66329262,-5.501875401,-6.248866558,-3.141192675,8.89865482
50.66829624,-7.307103634,-8.434772491,-1.714248419,11.29060663
50.6732707,-8.726864815,-10.82418633,-0.3375824392,13.90809624
50.67827724,-9.674968719,-13.33330917,1.731007814,16.56437567
50.68328177,-10.61828423,-16.1153717,3.655946016,19.64227854
50.68828585,-10.58237171,-19.9245472,3.75650239,22.87106211
50.69328985,-8.681375504,-22.81434822,1.89860189,24.48398363
50.698296,-6.002263546,-25.13672447,-2.166752577,25.93408764
50.70326893,-2.662352324,-25.7975235,-6.833051682,26.81959981
50.70827447,1.493981838,-22.91490364,-8.372523308,24.4422572
50.71327908,3.505111217,-18.63407135,-4.759673119,19.54914085
50.71828608,2.908955097,-13.64694977,-1.884236693,14.08018486
50.72328893,0.8451532125,-8.46589756,2.616862535,8.901329956
50.72829347,-2.398990154,-3.768473387,9.006986618,10.05397202
50.73329877,-4.994304657,-0.2130839527,9.174580574,10.44803391
50.73827439,-7.575253963,0.7757213712,7.173028469,10.46128834
50.74327808,-9.844957352,1.067813993,3.19865346,10.40647856
50.74828301,-11.10670185,1.218648672,-3.098097086,11.59491855
50.75328793,-10.66856289,0.758961916,-4.484339714,11.59756699
50.75829316,-8.463502884,-0.3926490843,-0.6033388376,8.494060991
50.76329816,-6.313509941,-1.951274395,2.67432332,7.128806686
50.76827193,-4.043806553,-3.892971992,4.254496574,7.043319067
50.77327724,-0.5291185975,-6.337451935,6.962338448,9.429603394
50.77828154,0.4932055473,-9.210494041,11.22401714,14.52773255
50.7832867,-0.4046200812,-10.9055891,14.5878706,18.21816565
50.78829139,-0.9935936928,-12.29901409,15.65807915,19.9356068
50.79329562,-1.347935557,-13.247118,14.98291397,20.04471942
50.79827254,-1.680729628,-13.99410915,12.87601662,19.09061935
50.80282831,-1.436521053,-14.53280449,11.3173914,18.47564199
50.80783293,-0.3016694188,-15.64371395,8.008605003,17.57710285
50.81328454,1.223437071,-16.57505798,4.175487995,17.13662876
50.81829139,4.297592163,-17.55428696,-4.376600742,18.59507792
50.82329562,6.576871872,-17.9900322,-10.85291672,22.01550143
50.82829908,6.43082571,-17.5686512,-12.57674122,22.5430132
50.83327447,4.699818134,-16.38831139,-11.21444035,20.40658504
50.83827939,3.363853455,-14.80813789,-8.240841866,17.27738211
50.84283624,2.353500366,-13.20402241,-5.384559631,14.45263485
50.84784124,1.563413739,-11.91354752,-2.987963676,12.38163171
50.85326247,1.173158884,-10.70208168,-1.929726601,10.9377648
50.85829931,0.8882488012,-9.99100399,-0.7661445141,10.05962843
50.86327285,-0.004788403399,-9.174580574,-0.07661445439,9.174901711
50.86827816,-0.8164227605,-8.664615631,-0.3423708379,8.709726055
50.87328239,-1.984793186,-7.915230751,-0.2896983922,8.165427545
50.87828977,-2.631227732,-7.268796444,0.2968810201,7.736077783
50.88329224,-3.658340216,-6.576871872,0.457292527,7.539748882
50.88829724,-4.601655483,-6.10042572,0.4333505034,7.653640951
50.89282524,-4.697423935,-6.095637321,0.5027823448,7.712028013
50.89827808,-4.656722069,-6.105214119,0.282515794,7.683652454
50.90328247,-4.563348293,-6.076483727,-0.4812345505,7.614419795
50.9082867,-3.758896589,-6.282385349,-1.297657371,7.435158633
50.91329016,-2.968810081,-6.548141479,-1.429338455,7.330415988
50.91829747,-2.061407566,-6.818686485,-1.364694953,7.253018603
50.92327139,-1.235408068,-7.050923824,-1.142034173,7.248862112
50.92827624,-0.6105214357,-7.259219646,-1.017535686,7.355568311
50.93328054,0.05746084079,-7.599195957,-1.173158884,7.689433185
50.93828708,0.4046200812,-7.862558365,-1.283292055,7.976865296
50.9432907,0.6344634295,-8.109161377,-1.37427175,8.24922208
50.94829447,0.7230489254,-8.307879448,-1.462857246,8.466617506
50.95329962,0.7278373241,-8.379706383,-1.419761658,8.530237359
50.95827724,0.6153098345,-8.473079681,-1.383848548,8.607364421
50.96328024,0.5793967843,-8.611943245,-1.201889277,8.714689032
50.96828485,0.5602431893,-8.743624687,-0.8978256583,8.807436404
50.97284216,0.4118026793,-8.82263279,-0.5889736414,8.851854085
50.978264,0.06943184882,-8.860940933,-0.4165911078,8.871000121
50.98329839,-0.2370259613,-8.844181061,-0.3950432837,8.856171811
50.98827316,-0.5913678408,-8.7843256,-0.4620809257,8.816326386
50.99327754,-1.029506683,-8.623914719,-0.5123591423,8.700247179
50.99828431,-1.568202138,-8.300697327,-0.6320692301,8.47114783
51.00328793,-1.826775908,-8.015787125,-0.6488286853,8.246874081
51.00829254,-1.963245392,-7.673416615,-0.7948749661,7.960369415
51.01329747,-1.989581585,-7.438784599,-0.9552865028,7.759286275
51.01827285,-1.953668594,-7.242460251,-0.9337386489,7.559227429
51.02327685,-1.853112102,-7.184999466,-0.7326257229,7.456204278
51.02828239,-1.810016513,-7.165845871,-0.4979939461,7.407665273
51.03328647,-1.728613615,-7.156269073,-0.349553436,7.370378531
51.03829408,-1.642422318,-7.292738438,-0.3806780577,7.485085222
51.04284924,-1.544260144,-7.486668587,-0.5698199868,7.665483725
51.04782331,-1.352723956,-7.757213593,-0.5793967843,7.895563657
51.05282793,-1.091755986,-8.262390137,-0.5817909837,8.35448997
51.05783447,-0.7613561153,-8.755595207,-0.6440402865,8.81220168
51.06328639,-0.3351882398,-9.334992409,-0.8762778044,9.38201989
51.0682907,0.03112462163,-10.01494598,-1.165976286,10.08263916
51.07284739,0.4261679053,-10.49857426,-1.496376038,10.61323804
51.07826985,0.7565677166,-10.9151659,-1.886630893,11.10282025
51.08327478,1.007958889,-11.16655636,-2.219424963,11.42951483
51.08827931,1.177947283,-11.31978607,-2.628833532,11.68057714
51.09328424,1.233013868,-11.20965195,-2.865859509,11.63571101
51.09829008,1.158793569,-11.07078838,-2.978386879,11.52284454
51.10329354,0.9768342972,-10.78827286,-2.913743496,11.217439
51.10829878,0.8571242094,-10.38604736,-2.777273893,10.78507728
51.11327324,0.9576807022,-10.15620327,-2.894589901,10.60397416
51.11828062,1.055842996,-9.976638794,-3.165134668,10.51980055
51.123284,1.139639974,-9.940725327,-3.387795448,10.56380411
51.12828824,1.18752408,-10.04846478,-3.49553442,10.70516785
51.13329193,1.194706678,-10.3405571,-3.174711466,10.88270362
51.13829816,1.326387763,-10.71644688,-2.535459518,11.09189313
51.14327201,1.592144132,-11.18092155,-1.774103403,11.43220769
51.14827685,1.960851192,-11.65018559,-1.084573388,11.8637288
51.15328085,2.449268341,-12.16493893,-0.5051765442,12.41933403
51.1582877,2.863465309,-12.46181965,-0.3663128614,12.79181643
51.16284424,3.19625926,-12.73715305,-0.4070142806,13.13837135
51.16826578,3.426102638,-12.9574194,-0.5554547906,13.41422479
51.17327039,3.473986626,-13.06037045,-0.8044517636,13.53842686
51.17827624,3.349488258,-13.14656162,-1.278503656,13.62665497
51.18328031,3.155557871,-13.12501335,-1.625662923,13.59655474
51.18828431,2.923320293,-13.09867764,-1.927332401,13.55860493
51.19328985,2.640804529,-13.06515884,-2.324769735,13.53058678
51.19829785,2.152387381,-13.05079365,-2.947262287,13.55147008
51.20282208,1.788468719,-13.11543655,-3.318363667,13.64642201
51.20827324,1.168370485,-13.34528065,-3.936067581,13.96260123
51.21327847,0.6320692301,-13.6110363,-4.304774761,14.28953836
51.21828431,0.2082955539,-13.86721611,-4.417302132,14.55526117
51.22328924,-0.3184288144,-14.08508873,-4.218583584,14.7067185
51.22829385,-0.6847416759,-14.18325043,-4.062960148,14.76960084
51.23329878,-0.9864110947,-14.25028896,-3.943250179,14.81866945
51.23827408,-1.091755986,-14.11142445,-3.38061285,14.55172754
51.24327839,-0.9457096457,-13.85285091,-2.384624958,14.08837398
51.24828308,-0.6009446383,-13.75229454,-1.769315004,13.87866042
51.25328701,-0.2226607651,-13.8073616,-1.462857246,13.88642371
51.25829324,0.1292868853,-13.92228317,-1.194706678,13.97404766
51.26329785,0.5195417404,-13.88397598,-1.036689281,13.9323163
51.26827139,0.6703764796,-13.55597019,-0.8714894056,13.60048625
51.27327685,0.2896983922,-13.26627159,-0.4525041282,13.27714755
51.27828308,-0.4285621047,-13.15613842,0.2513911724,13.16551712
51.28328647,-1.072602391,-13.2423296,1.247379065,13.34412693
51.28829078,-1.81959331,-13.64216137,2.533065319,13.99413829
51.29329624,-2.209848166,-14.21916389,3.552995205,14.82200478
51.29827262,-2.85867691,-14.70758057,4.410119534,15.61839025
51.30327662,-3.900154591,-14.94939518,5.204994678,16.30299333
51.30828031,-4.865017891,-15.10980701,5.920860767,16.94199691
51.31328578,-6.098031521,-15.38753414,6.045359135,17.62125315
51.3182907,-6.098031521,-15.38753414,6.045359135,17.62125315
51.32329531,-8.240841866,-15.69159794,4.290409565,18.23582558
51.32830031,-9.131484985,-15.98608494,3.023876667,18.65697617
51.33327447,-9.739612579,-16.68997955,0.5985504389,19.33322873
51.33827939,-9.722852707,-17.45372963,-1.968033791,20.07584867
51.34328431,-9.48343277,-18.07382774,-4.146757126,20.8277301
51.34828893,-8.911218643,-18.41141129,-5.142745018,21.09117611
51.35284708,-8.475474358,-18.50957298,-5.295974255,21.03533458
51.35827039,-7.829039574,-18.10734749,-5.46596241,20.47062869
51.36327508,-7.498639584,-17.38429832,-5.291185856,19.65807904
51.36827808,-7.242460251,-16.19916916,-4.491522312,18.30410021
51.37328208,-6.811503887,-15.17923832,-3.727771997,17.0499896
51.37828708,-6.119579315,-14.29577827,-2.906560898,15.81981744
51.38329224,-5.183446884,-13.31176186,-2.149993181,14.4462312
51.38829716,-4.146757126,-12.23197651,-0.9696516991,12.95210672
51.39327139,-2.645592928,-12.14817905,3.514688015,12.92015666
51.39827685,0.2896983922,-12.79700851,7.905653954,15.04482358
51.40328124,3.134010077,-13.15613842,7.17063427,15.30764492
51.4078387,4.601655483,-13.30218506,3.56496644,14.52006702
51.41281355,4.98233366,-13.26627159,0.4141969085,14.17706492
51.41781847,5.066130638,-12.89038181,-1.165976286,13.89917708
51.42282331,5.092466831,-12.46660805,-1.213860273,13.52120525
51.42827562,4.608838081,-11.70764637,-0.4812345505,12.59134459
51.43328024,3.7181952,-10.89361763,0.2035071403,11.51248434
51.43828831,2.832340717,-10.01015759,0.806845963,10.43438591
51.44328985,2.183511972,-9.184157372,1.371877551,9.539314397
51.44829478,1.268926859,-7.95593214,1.920149803,8.282149894
51.45330031,0.4285621047,-6.864176273,2.296039343,7.250681213
51.45827439,-0.2801215947,-5.786785603,2.41335535,6.276116615
51.4628317,-0.7709329724,-4.915296078,2.494758129,5.565814523
51.46828401,-1.247379065,-4.05338335,2.626439333,4.988391994
51.47328947,-1.508347034,-3.557783842,2.873042107,4.815320092
51.47829478,-1.762132406,-3.124433279,2.777273893,4.536567448
51.4832987,-1.824381709,-2.829946518,2.37744236,4.121795493
51.48827316,-1.733402014,-2.707842112,1.941697598,3.755966055
51.49327785,-1.778891921,-2.631227732,1.805228114,3.65330869
51.49828301,-1.924938202,-2.624045134,1.74776721,3.694007331
51.50328793,-2.152387381,-2.487575531,1.795651317,3.747688235
51.50829193,-2.406172752,-2.319981337,1.666364431,3.73480269
51.51329754,-2.688688517,-2.341529369,1.608903527,3.911569543
51.51827385,-2.868253708,-2.420537949,1.685518026,4.114225846
51.52327785,-2.904166698,-2.533065319,1.810016513,4.257553746
51.52828208,-3.01190567,-2.571372509,1.795651317,4.348321055
51.53328585,-3.186682463,-2.537853718,1.726219416,4.424418615
51.53784393,-3.354276657,-2.444479942,1.666364431,4.472518809
51.54326547,-3.363853455,-2.343923569,1.810016513,4.481701411
51.54827101,-3.308786631,-2.303221941,1.867477298,4.443013812
51.55327501,-3.263296843,-2.260126352,1.853112102,4.380787814
51.55828093,-3.045424461,-2.30801034,1.893813491,4.264745176
51.56328516,-2.770091295,-2.442085743,1.984793186,4.192444699
51.56828955,-2.504334927,-2.523488522,1.920149803,4.040626562
