Time (s),Acceleration x (m/s^2),Acceleration y (m/s^2),Acceleration z (m/s^2),Absolute acceleration (m/s^2)
40.00146131,-4.759922504,-15.68375587,0.0466600433,16.39021775
40.00376683,-4.785645485,-15.39841175,-1.210768223,16.17032612
40.00609814,-4.846064091,-15.18664742,-2.782254457,16.18207455
40.00841657,-4.840082169,-14.95334721,-4.262215137,16.28482318
40.01072204,-4.737190723,-14.6261282,-5.089533806,16.19468914
40.01305334,-4.56730032,-14.30130291,-5.356931686,15.94001927
40.01537178,-4.256233215,-13.99561977,-5.2707901,15.54908751
40.01767725,-3.888935089,-13.69352531,-5.150550842,15.13818436
40.0200086,-3.554538012,-13.40219975,-4.901697159,14.7064725
40.02232699,-3.237488985,-13.04866028,-4.53858614,14.18970169
40.02463251,-2.779861689,-12.67597771,-3.908077478,13.55290048
40.02696381,-2.277967215,-12.35115242,-3.256631613,12.97481214
40.0292822,-1.768295884,-11.98265743,-2.592623234,12.38679316
40.03158772,-1.315454245,-11.61535931,-1.94177556,11.84978835
40.03391902,-0.9990034699,-11.2755785,-1.498505235,11.41850237
40.03623746,-0.6927221417,-10.91246796,-0.9924231768,10.97937724
40.03854293,-0.3930211067,-10.63011456,-0.5246263742,10.65030675
40.04087428,-0.1866401732,-10.40877819,-0.2428714931,10.41328404
40.04319267,0.02452643216,-10.15394306,-0.02333002165,10.15399948
40.04549814,0.209371984,-9.909874916,-0.1190429255,9.912801254
40.04782949,0.394815743,-9.805189133,-0.3708875179,9.820141086
40.05014788,0.5270192027,-9.807581902,-0.8321040869,9.856916821
40.0524534,0.6544370055,-9.767501831,-1.427916884,9.892993806
40.0547847,0.7645068169,-9.631111145,-1.828714728,9.832953276
40.05710314,1.039083242,-9.466006279,-2.108675003,9.75353675
40.0594086,1.365703583,-9.248259544,-2.560918331,9.692974444
40.06173991,1.564307809,-9.09990406,-2.841476917,9.660709286
40.06405834,1.709671736,-8.924032211,-3.079562664,9.594010348
40.06636381,1.761117458,-8.621339798,-3.396013498,9.431963862
40.06869517,1.788634896,-8.29890728,-3.689732552,9.256630226
40.07101355,1.772483349,-7.983054638,-3.939782381,9.077044882
40.07331907,1.768894196,-7.590033531,-4.16710043,8.837551792
40.07565038,1.782652855,-7.109674454,-4.43748951,8.568350786
40.07796876,1.633101463,-6.614359856,-4.695316315,8.274223346
40.08027428,1.674975872,-6.301498413,-4.945366383,8.18358571
40.08260558,2.016551256,-6.159125328,-5.162514687,8.285702243
40.08492402,2.167897224,-5.674578667,-4.783252239,7.731760692
40.08722949,2.14696002,-5.218147755,-4.247858524,7.062776038
40.08956084,2.020140409,-4.816751957,-4.003790379,6.581216003
40.09187923,1.881356835,-4.657031059,-3.863212109,6.336548716
40.0941847,1.698904037,-4.636692047,-3.793222189,6.226854956
40.09651605,1.498505235,-4.66540575,-3.704687595,6.142982902
40.09883444,1.300499082,-4.616951466,-3.525225878,5.952709987
40.10113996,1.0863415,-4.424329281,-2.989233732,5.448884817
40.10347126,0.8398807645,-4.150351048,-2.310868502,4.823994895
40.1057897,0.566500783,-3.824328899,-2.034497499,4.368706301
40.10809517,0.4061816335,-3.511467218,-2.100300074,4.111769199
40.11042647,0.3774677813,-3.296711445,-2.19242382,3.977123393
40.11274491,0.3876372576,-3.128017426,-2.231905222,3.862144039
40.11505038,0.3595215976,-2.932404041,-2.281556368,3.732793686
40.11738173,0.3912265003,-2.709871531,-2.249253273,3.543388516
40.11970012,0.4019941986,-2.541775942,-2.303091764,3.453470132
40.12200564,0.3834498227,-2.383849621,-2.352144718,3.370809629
40.12433694,0.2787638307,-2.175673962,-2.435893536,3.277932851
40.12665538,0.08673982322,-1.901695848,-2.563311338,3.192888334
40.12896084,-0.102293171,-1.607976794,-2.55792737,3.023085459
40.13129215,-0.2871387303,-1.285543919,-2.495115757,2.821466721
40.13361058,-0.4558327198,-1.054636598,-2.52682066,2.775763763
40.13591605,-0.5084748268,-0.8590233326,-2.514258385,2.70517337
40.13824741,-0.6771687865,-0.7992027402,-1.872383714,2.145484411
40.14056579,-0.9918249846,-0.3972085714,-1.448854089,1.800185996
40.14287131,-1.26640141,-0.0,-1.16769743,1.722582311
40.14520262,-1.452443361,0.1543370634,-1.070189953,1.81072311
40.147521,-1.600200176,0.1651047617,-1.166501045,1.987114711
40.14982652,-1.749751568,0.0747757107,-1.249053478,2.151129133
40.15215782,-1.86580348,-0.05742774159,-1.249053478,2.24603098
40.15447626,-1.97826612,-0.1274178028,-1.20179522,2.318207042
40.15679465,-2.210369825,-0.171086818,-1.313061476,2.576652073
40.15911308,-2.360519648,-0.1076770201,-1.166501045,2.635217645
40.16143147,-2.340778828,-0.1633101404,-0.4941178858,2.397929984
40.16374985,-2.380260229,-0.3128615618,-0.4313062727,2.439169165
40.16606829,-2.446661234,-0.4827519655,-0.5449653864,2.552682496
40.16838668,-2.53280282,-0.6197410822,-0.6496513486,2.687232035
40.17070512,-2.580659151,-0.7603194118,-0.7160521746,2.783993171
40.1730235,-2.624328136,-0.8961120844,-0.7962117195,2.885146121
40.17534194,-2.660818815,-0.993021369,-0.7956135273,2.949415042
40.17766032,-2.687737942,-1.041476011,-0.8099704385,2.994104146
40.17997871,-2.723630428,-1.119242787,-0.8620143533,3.068213792
40.18229715,-2.715853691,-1.224527001,-0.8709874153,3.103859972
40.18461553,-2.746960402,-1.321436286,-0.87517488,3.171421822
40.18693397,-2.762513638,-1.441675663,-0.8985049129,3.243026579
40.18925235,-2.778665304,-1.566700578,-0.8356932998,3.297561958
40.19157079,-2.745165825,-1.633101463,-0.6915257573,3.268204961
40.19388918,-2.696112871,-1.742573142,-0.4953143001,3.248218285
40.19620762,-2.603390932,-1.869392633,-0.2596212626,3.215536715
40.198526,-2.548356056,-2.030908108,-0.06699903309,3.259324347
40.20084438,-2.435893536,-2.205584288,0.1740778536,3.290665961
40.20316282,-2.321038008,-2.331805706,0.5048855543,3.328579984
40.20548121,-2.224726915,-2.45383954,0.8542376757,3.420593566
40.20779965,-2.024926186,-2.592025042,1.310668588,3.540730436
40.21011803,-1.825125456,-2.730808735,1.847857237,3.768683543
40.2124235,-1.67437768,-2.841476917,2.431705952,4.09764878
40.21475485,-1.514058471,-2.93778801,3.068196774,4.509634451
40.21707324,-1.325623751,-3.01376009,3.628715515,4.899755555
40.21937876,-1.247856975,-3.087339401,4.273581028,5.417776888
40.22171006,-1.247258782,-3.115455151,4.922634602,5.957688032
40.2240285,-1.260419369,-3.186043262,5.629713535,6.590387177
40.22633397,-1.330409408,-3.277568817,6.282355785,7.209746234
40.22866527,-1.412961721,-3.417548895,6.965506554,7.886341536
40.23098371,-1.448854089,-3.561118364,7.762316704,8.662234284
40.23328918,-1.502094388,-3.791427374,8.645866394,9.55940452
40.23562053,-1.646860242,-4.043272018,9.567103386,10.51616206
40.23793892,-1.771885157,-4.442873478,10.45663452,11.49869155
40.24024444,-1.983649969,-4.974080086,11.27916813,12.48583091
40.24257574,-2.319243431,-5.552545071,12.19083309,13.59507478
40.24489418,-2.769692183,-6.13220644,13.07378483,14.70370703
40.24719965,-3.305684566,-6.815955162,13.83769321,15.77550471
40.24953095,-3.934398651,-7.564908981,14.33779335,16.6817163
40.25184938,-4.632504463,-8.296514511,14.5758791,17.3996696
40.25415485,-5.333601475,-9.019146919,14.51725483,17.9037148
40.25648621,-5.852844238,-9.881759644,14.25703526,18.30759442
40.25880459,-6.345765591,-10.71506023,14.16790295,18.86294597
40.26111006,-6.651448727,-11.53400326,13.86162186,19.22029037
40.26344142,-6.7734828,-12.22911835,13.49851036,19.43299222
40.2657598,-6.742974281,-12.70469189,13.04387474,19.41699169
40.26806532,-6.402595043,-13.12582874,12.40618706,19.16230886
40.27039663,-5.812764645,-13.82273865,11.91027451,19.14969909
40.27271506,-5.133800983,-14.46640778,11.35394382,19.09305913
40.27502053,-4.312464714,-15.12443352,10.99801064,19.19119796
40.27735183,-3.445066452,-15.71964836,10.6857481,19.31737663
40.27967027,-2.651845694,-16.18684769,10.30050373,19.36870416
40.28197574,-1.988435626,-16.49372673,9.988838196,19.38488551
40.28430709,-1.387238979,-16.63849258,9.88534832,19.40319507
40.28662548,-0.9912267923,-16.65763474,9.946365356,19.42651562
40.288931,-0.7818548083,-16.47996712,9.956535339,19.27000802
40.2912623,-0.6753742099,-16.13599968,9.816555023,18.8995071
40.29358074,-0.7256234884,-15.58565044,9.559326172,18.29808039
40.29588621,-0.813559711,-15.01197147,9.129815102,17.58905031
40.29821751,-0.8697910309,-14.32822227,8.551948547,16.70898902
40.30053595,-1.095912814,-13.50329685,7.933403492,15.69964782
40.30284142,-1.241874933,-12.662817,7.320242882,14.67907162
40.30517277,-1.363908887,-11.81216908,6.688537598,13.64273143
40.30749116,-1.394417405,-10.99262714,6.071189404,12.63493539
40.30979663,-1.489532113,-10.15992451,5.654240131,11.72233779
40.31212798,-1.554138303,-9.412766457,5.304289818,10.91563139
40.31444636,-1.645065546,-8.752944946,4.984249592,10.20602909
40.31675188,-1.853241086,-8.143971443,4.548755646,9.510517931
40.31908319,-2.011765718,-7.624729156,4.214358807,8.941169731
40.32140162,-2.173879385,-7.186842918,3.966103554,8.491551102
40.32370709,-2.248056889,-6.838686943,3.777070522,8.129431752
40.32603845,-2.254637241,-6.570092678,3.713062525,7.876315141
40.32835683,-2.289931297,-6.306882381,3.701696634,7.663100462
40.3306623,-2.359323025,-6.029314995,3.698705673,7.456505086
40.33299366,-2.408974171,-5.761917114,3.710669756,7.264428087
40.33531204,-2.590828657,-5.382056236,3.735196114,7.044899749
40.33761751,-2.758924484,-4.867001057,3.882354736,6.809702042
40.33994887,-2.864208698,-4.322035789,3.977469444,6.534825783
40.3422673,-2.868396044,-3.845864296,4.126422882,6.328169866
40.34457277,-2.93778801,-3.251846075,4.302893162,6.141660268
40.34690407,-3.092125177,-2.645265341,4.378267288,5.977281262
40.34922251,-3.343969584,-1.954936147,4.375874519,5.843987143
40.35152798,-3.748356581,-1.210768223,4.285545349,5.820827749
40.35385933,-4.202992916,-0.4097708762,4.165904045,5.931932075
40.35617772,-4.74436903,0.3828516304,3.698107481,6.027570971
40.35848324,-5.240880013,1.100698471,3.172882795,6.224592008
40.36081454,-5.600999832,1.687538147,2.726621389,6.453948274
40.36313293,-5.892923832,2.077568293,2.201396942,6.624876587
40.36543845,-6.031707764,2.227119684,1.67437768,6.644177996
40.36776975,-6.231508255,1.899302959,0.8685946465,6.572176468
40.37008819,-6.400800705,1.077966571,0.2913261652,6.497471241
40.37239366,-6.558726788,-0.007776673418,-0.3080759048,6.565962863
40.37472501,-6.573681831,-1.213759303,-0.471386075,6.701396071
40.3770434,-6.530013084,-2.364706993,-0.3481557071,6.953712853
40.37934892,-6.562315941,-3.839283943,0.1016949639,7.603580313
40.38168022,-6.652645111,-5.161318302,0.8685946465,8.464712059
40.3839986,-6.722635269,-6.644868374,1.880758643,9.637704796
40.38630412,-6.854240417,-8.37428093,3.122633457,11.2632159
40.38863543,-7.067800045,-10.34058285,4.714458942,13.38310779
40.39095386,-7.421937466,-12.50189972,6.448657036,15.90496243
40.39325933,-7.750950813,-14.98385525,8.629714966,18.94901414
40.39559069,-8.152346611,-17.61596107,11.40239811,22.51216388
40.39790907,-8.400602341,-20.38684845,14.52622795,26.40463989
40.40021454,-8.331210136,-23.48734856,17.17747498,30.26764363
40.4025459,-7.960920811,-26.5800724,17.99522209,33.0712039
40.40486428,-7.106683254,-29.74637413,16.93819237,34.96075058
40.4071698,-6.075974941,-32.9048996,14.55673695,36.49038886
40.4095011,-4.562514782,-35.56811142,12.304492,37.91184003
40.41181954,-2.812164783,-37.36990738,10.39143085,38.88958837
40.41412501,-0.8847461939,-38.09194183,8.524430275,39.0441381
40.41645631,1.0863415,-37.3854599,6.71964407,38.00008377
40.41877475,3.023331404,-35.08237076,4.530211449,35.50262084
40.42108022,4.422534466,-31.50450134,2.136192322,31.88503934
40.42341157,5.009374142,-27.12503815,-0.290129751,27.58524423
40.42572996,4.640879631,-22.02892303,-2.986840963,22.70974312
40.42803543,3.899702787,-16.49911118,-5.380859852,17.7871303
40.43036678,3.237488985,-11.89890862,-7.958528042,14.6766321
40.43268517,2.534597397,-8.599804878,-9.552745819,13.10098396
40.43499069,1.66600275,-5.879763603,-10.67258739,12.29842701
40.43732199,0.6873382926,-3.172284603,-11.67398357,12.11683606
40.43964043,-0.1447657645,-0.9541380405,-12.0598259,12.09837746
40.4419459,-0.7704889178,0.8231309652,-11.74935722,11.80332974
40.44427725,-1.316650629,1.859223247,-10.5978117,10.83992125
40.44659564,-1.872383714,2.348555326,-8.989236832,9.477758791
40.4489011,-2.380858421,2.422134638,-6.972086906,7.755334864
40.45123246,-2.895315409,2.264806747,-4.767100811,6.019755067
40.45355084,-3.45583415,2.087737799,-2.647658348,4.828201893
40.45585636,-4.042674065,1.842473388,-0.6711867452,4.493151836
40.45818767,-4.642076015,1.567298889,1.281356573,5.064303527
40.4605061,-5.185246468,1.168893814,3.14895463,6.17810723
40.46281157,-5.489733219,0.613160789,4.881956577,7.372017159
40.46514288,-5.627320766,-0.01674975827,6.235097408,8.399015374
40.46746131,-5.522634506,-0.8685946465,6.672386169,8.704865636
40.46976678,-5.091926575,-1.810768485,5.981458187,8.061292749
40.47209814,-4.30827713,-2.568695068,4.11386013,6.487163583
40.47441652,-3.324826956,-3.18006134,1.194018483,4.753203609
40.47672204,-2.078166485,-3.75673151,-2.00099802,4.736644451
40.47905334,-0.7639086246,-4.380660057,-5.119443893,6.781035666
40.48137173,0.589232564,-5.146363258,-7.844270706,9.400257056
40.48367725,1.692921996,-5.974279881,-10.16112137,11.90824892
40.48600855,2.345564365,-6.893722057,-11.80917835,13.87377992
40.48832699,2.985046148,-7.855636597,-12.8315115,15.338488
40.49063246,3.459423304,-8.657232285,-13.55593872,16.45231762
40.49296381,3.865604877,-9.330213547,-13.82453251,17.12055738
40.4952822,4.237689018,-10.12343407,-13.61994648,17.49127976
40.49758767,4.499104977,-10.97587776,-13.11506081,17.68379649
40.49991902,4.718048096,-11.78584766,-12.2099762,17.61390649
40.50223741,4.870590687,-12.62991619,-11.20558834,17.57278142
40.50454293,4.931607246,-13.45783234,-10.1832552,17.58216959
40.50687423,4.887340069,-14.249259,-9.218947411,17.66115699
40.50919267,4.771886349,-14.94138241,-8.01775074,17.61533805
40.51149814,4.658825874,-15.5419817,-6.750152588,17.57334384
40.51382949,4.505086899,-15.94636822,-5.317450047,17.40280846
40.51614788,4.435096741,-16.53081512,-3.544368505,17.47857202
40.51845334,4.48833704,-17.27079582,-1.816152334,17.93666544
40.5207847,4.587040901,-17.83729553,-0.3613162339,18.42119989
40.52310308,4.637888432,-18.26621056,0.6538388133,18.85714619
40.5254086,4.697110653,-18.54258156,1.314856052,19.17339369
40.52773991,4.799404144,-18.55394745,1.677966833,19.23795256
40.53005834,4.902295589,-18.37328911,1.935195327,19.11426786
40.53236381,4.984249592,-18.1459713,1.728814363,18.89729656
40.53469512,4.986044407,-17.70987892,1.225125194,18.43912639
40.53701355,4.965705395,-17.11107445,0.6382854581,17.82847462
40.53931902,4.890929699,-16.61935043,0.01914258115,17.32409792
40.54165038,4.710271358,-16.16411591,-0.9254241586,16.86184181
40.54396876,4.489533424,-15.56531143,-1.571486235,16.27588398
40.5462872,4.262813568,-14.98505211,-1.901695848,15.69521626
40.54860558,3.969692707,-14.34915924,-2.003988981,15.02241002
40.55092402,3.672384501,-13.74078369,-1.972882271,14.35924123
40.55322949,3.318246841,-13.16830158,-1.856232166,13.70622218
40.55556079,3.004188776,-12.68495083,-1.729412556,13.15005686
40.55787923,2.639881611,-12.30927753,-1.597209096,12.69008925
40.5601847,2.324028969,-11.97547913,-1.344766378,12.2727995
40.56251605,2.042274237,-11.61176968,-1.2352947,11.85453635
40.56483444,1.734796405,-11.35035419,-1.28315115,11.55363734
40.56713991,1.383051515,-11.05603695,-1.202393413,11.20689674
40.56947126,1.036690354,-10.80957603,-1.025324464,10.90747226
40.57178965,0.6520441771,-10.60618591,-0.7728816867,10.65428024
40.57409517,0.2428714931,-10.3226366,-0.6215356588,10.34418289
40.57642647,-0.1896311939,-10.05882835,-0.4313062727,10.06985665
40.57874491,-0.7124629617,-9.806983948,-0.2949153781,9.837251278
40.58105038,-1.188036442,-9.529416084,-0.1579262912,9.604485525
40.58338168,-1.628315806,-9.361918449,-0.005383851007,9.502471174
40.58570012,-2.08235383,-9.180064201,0.1609173268,9.414651911
40.58800558,-2.435893536,-8.88993454,0.4797609448,9.230096641
40.59033694,-2.783450842,-8.586046219,0.5557330847,9.043043046
40.59265532,-3.049054146,-8.2701931,0.5270192027,8.830094809
40.59496084,-3.197409153,-8.033902168,0.4289134443,8.657423178
40.59729215,-3.175275564,-7.7838521,0.4031906128,8.416251606
40.59961058,-3.031108141,-7.61755085,0.3128615618,8.204424408
40.60191605,-2.79421854,-7.554141045,0.3098705411,8.060317855
40.60424735,-2.569891453,-7.543971539,0.3164508045,7.97596325
40.60656579,-2.335394859,-7.562515736,0.2949153781,7.92039699
40.60888418,-2.078166485,-7.551748276,0.2871387303,7.83773734
40.61120262,-1.684547186,-7.596015453,0.07178468257,7.78089346
40.613521,-1.459023595,-7.557132244,-0.1322034448,7.697822767
40.61583944,-1.065404296,-7.558328629,-0.4863412082,7.648525723
40.61815782,-0.5491527915,-7.5421772,-0.7345965505,7.597738993
40.62047621,-0.02093719877,-7.558926582,-1.072582722,7.634673741
40.62278173,0.4097708762,-7.352545738,-1.347757339,7.486273496
40.62511303,0.8596215248,-7.077969551,-1.736590981,7.338416067
40.62743147,1.197009563,-6.643074036,-1.841875196,6.996839913
40.62973694,1.395015597,-6.187241077,-1.876571178,6.614343509
40.63206829,1.55892396,-5.866004944,-1.939382792,6.371927772
40.63438668,1.676172256,-5.595017433,-1.973480463,6.165095186
40.63669215,1.826920033,-5.471786976,-2.19242382,6.171289308
40.6390235,1.974676847,-5.559723377,-2.420340061,6.377140323
40.64134188,2.054836512,-5.812764645,-2.699103832,6.730211542
40.64364741,2.191227436,-6.223133564,-2.894717216,7.204738496
40.64597871,2.207977057,-6.530013084,-2.76371026,7.426595988
40.64829715,2.128415823,-6.68016243,-2.48195529,7.437393768
40.65061553,2.036292076,-6.830910206,-2.414956331,7.525944043
40.65293397,1.962712765,-6.97627449,-2.218744755,7.579147409
40.65525235,1.861017823,-7.198806763,-1.913061738,7.677630582
40.65757074,1.777867198,-7.44048214,-1.52542448,7.800545243
40.65988918,1.665404558,-7.663612843,-1.090528965,7.917940867
40.66220756,1.526620865,-7.804789066,-0.513858676,7.969275649
40.66451308,1.314856052,-8.044071198,-0.08015955985,8.15121791
40.66684439,1.112064362,-8.365307808,0.09272187948,8.43941107
40.66916282,0.8452646136,-8.448458672,0.3200400174,8.4966671
40.67146829,0.6317051649,-8.376075745,0.4983053207,8.414630383
40.67379959,0.5252245665,-8.353941917,0.6687939167,8.397112105
40.67611803,0.4319044948,-8.448458672,0.6640082598,8.485511321
40.67843642,0.3056831062,-8.561519623,0.7734799385,8.601821413
40.68075485,0.1363908947,-8.675776482,0.8350951076,8.716942347
40.68307324,-0.05204389244,-8.804390907,0.9583254457,8.856545347
40.68539168,-0.2039881349,-9.009575844,0.9822536707,9.065257322
40.68771006,-0.3439682424,-9.137591362,0.9816554785,9.196604674
40.69002845,-0.4887340367,-9.098110199,1.022931695,9.168470941
40.69234688,-0.6951149702,-9.040681839,1.001994491,9.122560271
40.69466527,-0.8703892231,-8.900702477,1.013360381,9.000387838
40.69698371,-1.007976532,-8.610571861,1.144367456,8.744572107
40.69930209,-1.109073281,-8.449654579,1.351944804,8.628699833
40.70162053,-1.173081279,-8.388039589,1.417747378,8.587510434
40.70393892,-1.270588875,-8.322834969,1.468594909,8.546388068
40.7062573,-1.280758262,-8.303692818,1.478166223,8.530922079
40.70857574,-1.256830096,-8.284550667,1.387837172,8.493497139
40.71089412,-1.238883972,-8.193024635,1.277169108,8.384011397
40.71321256,-1.189232826,-8.048258781,1.124028444,8.212927862
40.71553095,-1.096511006,-7.907082558,0.9661021233,8.040997716
40.71784938,-0.9834501147,-7.784450054,0.7375875711,7.880918233
40.72016777,-0.8081758618,-7.661220074,0.513858676,7.72084788
40.72248621,-0.6185446382,-7.54157877,0.2380858511,7.570646781
40.72480459,-0.4073780477,-7.460821152,-0.1040877849,7.472659727
40.72712298,-0.1926222295,-7.398607731,-0.3984049559,7.411830151
40.72944142,0.03290131316,-7.369893551,-0.6634100676,7.399765291
