Time (s),Acceleration x (m/s^2),Acceleration y (m/s^2),Acceleration z (m/s^2),Absolute acceleration (m/s^2)
10.00146446,-2.036292076,-7.679764271,3.260220766,8.58803261
10.00378285,-2.124826431,-7.561917782,3.239283562,8.496496095
10.00610123,-2.206780672,-7.347760201,3.223132133,8.321540822
10.00841962,-2.268395901,-7.142575741,3.120838881,8.117982723
10.010738,-2.238485575,-6.945765972,2.933600664,7.865144338
10.01305634,-2.194218397,-6.892525673,2.575873613,7.678322043
10.01537472,-2.125424623,-6.881757736,2.228316069,7.539324364
10.01769311,-1.944766641,-6.772286415,1.923829436,7.303909931
10.0200115,-1.773081541,-6.64427042,1.547558069,7.048764682
10.02232988,-1.595414519,-6.554539204,1.042672515,6.826016235
10.02464827,-1.434497118,-6.532405853,0.6191428304,6.71665438
10.02695373,-1.278365493,-6.548557281,0.2536391914,6.676986868
10.02928504,-1.110867858,-6.641279221,-0.1591227055,6.735424049
10.03160342,-0.8949156404,-6.771687984,-0.5330012441,6.85132998
10.03390884,-0.717248559,-6.906882763,-0.8069794178,6.990757525
10.03624014,-0.5700899959,-7.019345284,-1.014556766,7.115162419
10.03855853,-0.4313062727,-7.17009306,-1.183848977,7.279955905
10.040864,-0.3493520916,-7.33639431,-1.273579836,7.454309757
10.0431953,-0.3008974493,-7.5421772,-1.295115232,7.658478939
10.04551368,-0.2895315289,-7.810173035,-1.245464206,7.914152666
10.04783207,-0.3439682424,-8.118846893,-1.138385415,8.205480509
10.05015045,-0.457029134,-8.438288689,-0.9320043921,8.501895307
10.05246884,-0.6329016089,-8.739784241,-0.6311069727,8.785367894
10.05477431,-0.8243274093,-9.026325226,-0.1872383654,9.065821582
10.05710561,-1.05224371,-9.232108116,0.35174492,9.298535454
10.05942394,-1.304088354,-9.457631111,0.9948160052,9.598806778
10.06172941,-1.51944232,-9.611370087,1.633101463,9.866821185
10.06406071,-1.68574357,-9.671789169,2.252842426,10.07276209
10.0663791,-1.74735868,-9.662218094,2.785843849,10.20650022
10.06868457,-1.698904037,-9.617352486,3.12921381,10.25532656
10.07101587,-1.549352646,-9.51745224,3.235096216,10.17095071
10.07333426,-1.284945726,-9.372088432,3.131606579,9.964641833
10.07565264,-0.9547362328,-9.144171715,2.79421854,9.609113116
10.07797103,-0.513858676,-8.88993454,2.29052949,9.194645844
10.08028941,0.01016949583,-8.667402267,1.668395638,8.826523069
10.08259483,0.5497509837,-8.459226608,0.9367900491,8.528676131
10.08492613,1.230509043,-8.357531548,0.1890329868,8.449746715
10.08724452,1.92741859,-8.347361565,-0.5300102234,8.583373366
10.08954998,2.68713975,-8.417949677,-1.109671474,8.905838959
10.09188129,3.40498662,-8.517251968,-1.627119422,9.315848463
10.09419967,4.04087925,-8.833703041,-1.996212244,9.917049856
10.09650514,4.68275404,-9.232108116,-2.2259233,10.58842482
10.09883644,5.258227825,-9.670592308,-2.308475733,11.24714967
10.10115483,5.666203976,-10.12642574,-2.354537487,11.8403637
10.1034603,5.927021503,-10.63430214,-2.304886341,12.39074118
10.1057916,5.983851433,-11.18046379,-2.271985054,12.88297965
10.10810993,5.842076302,-11.63928795,-2.136192322,13.19720414
10.1104154,5.543571949,-11.94437218,-1.945963025,13.31112275
10.1127467,5.193023205,-12.13460159,-1.689931035,13.30683707
10.11506509,4.754538536,-12.2165556,-1.45483613,13.18963288
10.11737056,4.378267288,-12.30628681,-1.214357495,13.11825383
10.11970186,4.052843571,-12.35175037,-0.9493523836,13.03428357
10.12202024,3.697509289,-12.3738842,-0.6089733839,12.9288605
10.12433863,3.404388428,-12.37089348,-0.2925225794,12.83411218
10.12665702,3.102892876,-12.4301157,0.05383851007,12.8116595
10.1289754,2.852244616,-12.84287739,0.4839483798,13.1646878
10.13128087,2.465205431,-12.98166084,1.015154958,13.25259581
10.13361212,2.179861546,-12.55035496,1.301097274,12.80453279
10.13593051,1.884945989,-12.44148159,1.50269258,12.67286749
10.13823597,1.567897081,-12.44387436,1.695314884,12.65631869
10.14056728,1.229312658,-12.44207954,1.740180254,12.62318424
10.14288566,0.9337990284,-12.44925785,1.742573142,12.60525933
10.14519113,0.7046862841,-12.44507027,1.668993831,12.57624336
10.14752243,0.5108676553,-12.45942783,1.548156261,12.56563232
10.14984082,0.3882354796,-12.44806194,1.341775298,12.52618593
10.15214629,0.2697907388,-12.40319633,1.078564763,12.45292609
10.15447759,0.2039881349,-12.36730385,0.8338986635,12.39706427
10.15679597,0.185443759,-12.36311626,0.7286145091,12.38595625
10.15911431,0.2129612118,-12.29970646,0.6999006271,12.32144441
10.16143269,0.2249253243,-12.23210907,0.7088736892,12.25469647
10.16375108,0.2338984162,-12.20818138,0.7375875711,12.23267904
10.16606946,0.2799602449,-12.17827129,0.8327022791,12.20991657
10.16838785,0.214157626,-12.05922794,0.926620543,12.09667176
10.17070623,0.1878365725,-11.98325539,1.026520967,12.02860913
10.17302462,0.1310070455,-11.84985638,1.125224829,11.9038813
10.175343,0.09272187948,-11.70568848,1.257428288,11.77339653
10.17766139,0.06460621208,-11.58604717,1.442273855,11.6756506
10.17997978,0.03110669367,-11.45683479,1.612762451,11.56983292
10.18229816,0.05563312769,-11.38385391,1.855633974,11.5342361
10.1846165,0.1381855011,-11.35274696,2.18105793,11.56118387
10.18693488,0.2153540403,-11.3072834,2.505285263,11.58350075
10.18925327,0.3547359705,-11.25045395,2.821137905,11.60419626
10.19157165,0.5234299302,-11.24566841,3.141776085,11.68801925
10.19387712,0.7154539824,-11.36590767,3.454637766,11.90085096
10.19620842,0.9487541914,-11.59023476,3.677768469,12.19670682
10.19852681,1.20717907,-11.84387398,3.748954773,12.48155816
10.20084519,1.478764415,-12.16391373,3.643670797,12.78373491
10.20316358,1.811964989,-12.44447231,3.439084291,13.03746176
10.20548196,2.145763636,-12.69153118,3.128615618,13.24641465
10.20778738,2.542972326,-13.01456261,2.748156786,13.54244859
10.21011868,2.938984394,-13.42373466,2.297109842,13.9323722
10.21243707,3.326621771,-13.85264874,1.77846539,14.35706197
10.21474254,3.68674159,-14.36411476,1.323230863,14.88861298
10.21707384,3.989433527,-14.914464,1.009771109,15.47179543
10.21939222,4.196412563,-15.46241951,0.8201399446,16.04272187
10.22169769,4.34775877,-15.9631176,0.7962117195,16.56375812
10.224029,4.485944271,-16.35853195,0.9385846853,16.98841384
10.22634738,4.61814785,-16.68156242,0.9708877802,17.33621751
10.2286528,4.667798996,-16.90170288,0.8584251404,17.55542086
10.23098415,4.656432629,-16.96451378,0.6634100676,17.6044655
10.23330248,4.601995945,-16.85564041,0.5425725579,17.48100012
10.23560795,4.540380955,-16.68874168,0.5599204898,17.30441184
10.23793926,4.353142738,-16.47278976,0.614357233,17.04934278
10.24025764,4.10309267,-16.22333717,0.6628118753,16.74727912
10.24257603,3.636492252,-15.89372635,0.6179464459,16.31614142
10.24489441,2.983849764,-15.51087475,0.4755735099,15.80242909
10.2472128,2.221735716,-15.1154604,0.261415869,15.28010441
10.24951827,1.40697968,-14.74636745,0.0747757107,14.81352545
10.25184957,0.626919508,-14.41436386,-0.1304088384,14.42857997
10.25416795,-0.07776673883,-14.20080376,-0.2955136001,14.20409108
10.25647337,-0.626919508,-14.13739395,-0.5341976285,14.16136656
10.25880467,-1.015154958,-14.16132259,-0.7429714203,14.21708844
10.26112306,-1.279561877,-14.19183064,-0.9924231768,14.2839154
10.26342853,-1.45782721,-14.22054482,-1.290329576,14.35319147
10.26575983,-1.594816327,-14.19542027,-1.55892396,14.3695386
10.26807821,-1.714457393,-14.1122694,-1.822732687,14.33240616
10.27038368,-1.791625977,-14.02313709,-2.009970903,14.27929552
10.27271498,-1.876571178,-13.98186111,-2.225325108,14.28166767
10.27503337,-1.9585253,-14.08594894,-2.392822742,14.42135152
10.27733884,-2.081157446,-14.10808277,-2.513062,14.48049365
10.27967014,-2.151745796,-14.1242342,-2.53280282,14.50996526
10.28198847,-2.251646042,-14.16012573,-2.452044964,14.54618834
10.28429394,-2.336591244,-14.22413445,-2.36650157,14.6077373
10.28662525,-2.422134638,-14.27378559,-2.237887383,14.6497724
10.28894363,-2.514258385,-14.41496181,-2.180459738,14.79415506
10.29126202,-2.605783939,-14.56152248,-2.146361828,14.9477395
10.2935804,-2.654836655,-14.71585941,-2.112264156,15.10186531
10.29589879,-2.684746981,-14.8462677,-2.13559413,15.23746348
10.29821717,-2.685345173,-14.99522114,-2.220539331,15.39475659
10.30053556,-2.629712105,-15.06162167,-2.338984251,15.46734238
10.30285394,-2.583650351,-15.11366558,-2.543570518,15.54245436
10.30517233,-2.505883455,-15.29013634,-2.722434044,15.73147699
10.30749066,-2.418545485,-15.49950886,-2.863610506,15.94629745
10.30980905,-2.343171597,-15.79083443,-2.965305567,16.23680825
10.31212743,-2.278565407,-16.05344772,-3.101098061,16.50823592
10.31444582,-2.216950178,-16.33639908,-3.294318676,16.81205932
10.3167642,-2.123630047,-16.52662849,-3.592823267,17.04545784
10.31908259,-2.048256159,-16.62114334,-3.820141315,17.1770556
10.32140097,-1.887338877,-16.65643883,-4.152145386,17.26960665
10.32371936,-1.765304923,-16.65883064,-4.46620369,17.3372407
10.32602483,-1.616949916,-16.62234116,-4.69411993,17.34795419
10.32835613,-1.527219057,-16.50987816,-4.832903385,17.27036276
10.33067446,-1.500299811,-16.29332733,-4.776672363,17.04523435
10.33299285,-1.520638824,-16.09592056,-4.625924587,16.81636642
10.33531123,-1.567298889,-15.89492226,-4.298107624,16.54021489
10.33762962,-1.677966833,-15.61376572,-3.867399693,16.17287955
10.339948,-1.764108539,-15.40319729,-3.349353552,15.86154894
10.34226639,-1.819143414,-15.28355598,-2.821736097,15.64795708
10.34458478,-1.919043779,-15.06880093,-2.298904419,15.36347786
10.34689024,-1.987837434,-14.98265934,-1.756331801,15.21565904
10.34922155,-2.050050735,-15.0843544,-1.351346612,15.28288564
10.35153993,-2.083550215,-15.2291193,-0.8685946465,15.3955095
10.35384535,-2.067996979,-15.42473316,-0.404387027,15.56799709
10.35617665,-2.061416626,-15.63948917,0.0652044192,15.77489498
10.35849504,-2.052443504,-15.8249321,0.8009973764,15.97756543
10.3608005,-2.088335991,-16.04028702,1.761117458,16.27124733
10.36313181,-2.08534503,-16.28854179,2.855235577,16.66786213
10.36545019,-2.067996979,-16.56431389,3.982853174,17.16147504
10.36775566,-2.059023857,-16.78325844,4.800600529,17.57734646
10.37008696,-2.011765718,-17.06979942,5.189434052,17.95426076
10.37240535,-1.951346874,-17.22652817,5.28155756,18.12335172
10.37471082,-1.920240164,-17.37548256,4.839483738,18.13877943
10.37704212,-1.900499344,-17.5447731,4.110869408,18.11988433
10.37936051,-1.96151638,-17.67279053,3.19980216,18.06692573
10.38167884,-2.095514536,-17.69671822,2.106880426,17.94446884
10.38399722,-2.29052949,-17.54537201,0.9924231768,17.72206275
10.38631561,-2.448455811,-17.35813332,-0.1932204217,17.53103141
10.38862108,-2.751147747,-16.98844337,-1.219741344,17.25293573
10.39095238,-3.198605776,-16.49671745,-2.319243431,16.96324426
10.39327077,-3.799204111,-15.94158268,-3.597608805,16.77828356
10.39557623,-4.385445595,-15.60180187,-4.807180882,16.90435869
10.39790754,-4.915455818,-15.27099419,-5.85882616,17.0789582
10.40022592,-5.535795212,-14.80618858,-6.683153629,17.16195768
10.40253134,-6.281159401,-14.34556961,-7.532605648,17.37781571
10.40486264,-6.918846607,-14.01057434,-8.137392044,17.61771214
10.40718103,-7.427321434,-13.79282761,-8.558527946,17.85092708
10.4094865,-7.802396297,-13.59541988,-8.796614647,17.9747951
10.4118178,-7.965706348,-13.47996616,-9.013762474,18.06681708
10.41413618,-7.980063438,-13.24068451,-9.225527763,18.0029859
10.41644165,-7.774280548,-13.06780243,-9.277571678,17.81236185
10.41877295,-7.395018578,-12.87996578,-9.031708717,17.38250789
10.42109134,-6.978068829,-12.42712402,-8.259425163,16.47255172
10.42339681,-6.506084919,-12.00658607,-7.275377274,15.4731498
10.42572811,-5.934200287,-11.51545906,-6.314659119,14.41164287
10.42804644,-5.643472195,-10.69113159,-5.455037594,13.26297509
10.43035191,-5.325226784,-10.00558758,-5.099703312,12.4288695
10.43268321,-4.905286312,-9.273982048,-4.586442947,11.45006706
10.4350016,-4.432703972,-8.51844883,-4.071985722,10.43043157
10.43730707,-4.051048756,-7.816154957,-3.362514019,9.423893827
10.43963837,-3.837489367,-7.108478069,-2.560320139,8.474197562
10.44195676,-3.633501291,-6.597609997,-1.593619823,7.698728041
10.44426222,-3.495913982,-6.401398659,-0.9308080077,7.352939746
10.44659353,-3.276372433,-6.232106686,-0.3481557071,7.049466821
10.44891191,-2.840280533,-6.366104603,-0.7776673436,7.014217548
10.45121738,-2.490330219,-6.498906136,-1.703689694,7.165199518
10.45354863,-2.323430777,-6.510870457,-2.302493572,7.286373675
10.45586702,-2.233101845,-6.311667919,-2.337189436,7.091286923
10.45817248,-2.109871387,-6.068198204,-2.423929453,6.866587268
10.46050379,-1.986641049,-5.819942951,-1.966302037,6.456378421
10.46282217,-1.759322882,-5.596213818,-0.6687939167,5.904245201
10.46512764,-1.531406522,-5.521438122,0.5156532526,5.753032517
10.46745894,-1.29451704,-5.548955917,0.7896314859,5.752408541
10.46977733,-1.138385415,-5.574678421,0.4432703853,5.706964998
10.4720828,-1.030110121,-5.539982796,-0.162113741,5.637270359
10.47441405,-0.9224331379,-5.428118229,-0.8865407705,5.576854395
10.47673243,-0.7298108935,-5.276174068,-1.620539188,5.56747555
10.4790379,-0.6107679605,-5.106283665,-2.14995122,5.57399862
10.4813692,-0.4522434771,-4.901099205,-2.370090723,5.462840618
10.48368759,-0.2554338276,-4.709074974,-2.479562521,5.328120104
10.48599306,-0.1178465188,-4.600799561,-2.764906645,5.368980644
10.48832436,0.07118647546,-4.453042984,-3.022135019,5.382189091
10.49064274,0.2703889608,-4.237090588,-3.016751051,5.208342706
10.49294821,0.4241278172,-4.05523634,-2.535195589,4.8012543
10.49527952,0.5647061467,-3.867997885,-2.234298229,4.502487007
10.4975979,0.72323066,-3.763311863,-2.052443504,4.347194855
10.49990332,0.8548358679,-3.721437454,-1.999203324,4.310064387
10.50223462,1.025324464,-3.684348583,-1.988435626,4.310404967
10.504553,1.076171994,-3.543770313,-2.175075769,4.295044679
10.50687139,1.180259824,-3.358924866,-2.151745796,4.159975899
10.50918978,1.301097274,-3.111267567,-1.938186288,3.889653722
10.51150816,1.36211431,-2.77746892,-1.667797327,3.51443266
10.51381363,1.344766378,-2.53280282,-1.5224334,3.246735314
10.51614493,1.336391449,-2.249253273,-1.414756417,2.974326497
10.51846332,1.465005636,-2.097309113,-1.295713425,2.867720402
10.52076879,1.650449395,-2.093121529,-1.255633712,2.946482133
10.52310009,1.71924305,-1.995614052,-1.222732425,2.904022502
10.52541847,1.689931035,-1.794616938,-1.200598717,2.74188879
10.52773681,1.666600943,-1.664806366,-1.076770186,2.590091306
10.53005519,1.682154298,-1.577468276,-0.9056833982,2.477561636
10.53237358,1.708475351,-1.547558069,-0.7292127013,2.41776243
10.53469196,1.606182218,-1.48295188,-0.6592226624,2.283318224
10.53701035,1.398006678,-1.372283816,-0.6239284873,2.05593587
10.53932873,1.258026481,-1.308275819,-0.6161518097,1.91673141
10.54164712,1.051645517,-1.265205026,-0.5748756528,1.742751866
10.54396551,0.7154539824,-1.16769743,-0.6119644046,1.49996404
10.54628389,0.433100909,-1.135992527,-0.6436693072,1.375632798
10.54860228,0.1848455518,-1.127019525,-0.6412764788,1.309800141
10.55092061,-0.1190429255,-1.15393877,-0.6723831892,1.340837446
10.553239,-0.4677968323,-1.147358418,-0.7178468108,1.431980886
10.55554446,-0.7447660565,-1.144367456,-0.6490531564,1.511794746
10.55787577,-1.064806104,-1.151545882,-0.575473845,1.670640627
10.56019415,-1.447657704,-1.237687469,-0.6927221417,2.02668376
10.56249962,-1.499103427,-1.49431777,-1.163509965,2.415378256
10.56483092,-1.661815286,-1.68574357,-1.134796143,2.625094991
10.56714931,-1.820339799,-1.660020709,-1.069591761,2.685764746
10.56945478,-1.965703845,-1.600798368,-0.9714859724,2.714835541
10.57178608,-1.962712765,-1.585843205,-0.8380861282,2.658858482
10.57410446,-2.009372711,-1.639681697,-0.77108711,2.705681077
10.5764228,-2.046461582,-1.679163337,-0.7806583643,2.759895288
10.57874118,-2.096112728,-1.743769526,-0.8805587292,2.865275625
10.58105957,-2.090130568,-1.810768485,-0.8422735929,2.890839515
10.58337795,-2.050648928,-1.871785522,-0.8315058947,2.898300212
10.58569634,-1.954936147,-1.92203474,-0.6825526357,2.825220519
10.58801472,-1.896910191,-1.992623091,-0.5670989752,2.808988484
10.59033311,-1.792822361,-2.023131609,-0.342173636,2.724767205
10.5926515,-1.646860242,-2.067398787,0.03230310604,2.643355801
10.59496988,-1.481157184,-2.139183521,0.5060819983,2.650670053
10.5972753,-1.373480201,-2.212762833,0.9696913958,2.779040953
10.5996066,-1.170090318,-2.303091764,1.473380566,2.973918849
10.60192498,-0.9242277741,-2.387438774,1.996212244,3.246370928
10.60423045,-0.7142575383,-2.544766903,2.510071039,3.645059539
10.60656176,-0.4737788737,-2.619542599,3.136990547,4.114265371
10.60888014,-0.3613162339,-2.697309256,3.730410576,4.617574007
10.61118561,-0.2261217386,-2.770290375,4.347160339,5.159790966
10.61351691,-0.1585244983,-2.830111027,5.035097122,5.778136505
10.6158353,-0.1728814393,-2.839084148,5.631507874,6.309054424
10.61814077,-0.2279163599,-2.877967358,6.146563053,6.79079372
10.62047207,-0.3337987661,-3.028116941,6.762116909,7.416679777
10.62279045,-0.4265206456,-3.206382275,7.496713161,8.164772831
10.62509587,-0.6167500615,-3.397209883,8.126624107,8.829690539
10.62742717,-0.8847461939,-3.574877024,8.797810555,9.537504501
10.62974556,-1.060618639,-3.784249067,9.432506561,10.21849465
10.63205103,-1.232303619,-4.119244099,9.991230965,10.87710625
10.63438233,-1.564307809,-4.514657974,10.33519936,11.3861996
10.63670071,-1.7670995,-4.950749874,10.90349483,12.10449357
10.63900618,-1.993221283,-5.555535793,11.37368393,12.81396095
10.64133748,-2.374876499,-6.174678802,11.63749313,13.3864836
10.64365587,-2.766103029,-6.634100914,11.89950657,13.90183001
10.64596129,-3.236292601,-7.130013466,12.05623722,14.37579694
10.64829259,-3.636492252,-7.5954175,12.3996067,14.98881881
10.65061097,-3.790829182,-8.179265976,12.64128208,15.52651894
10.65291644,-3.857828379,-8.852845192,13.06959724,16.25023323
10.65524774,-3.759124279,-9.5754776,13.2903347,16.80636139
10.65756613,-3.577269793,-10.2281208,13.60259819,17.39085943
10.6598716,-3.443271875,-10.95553875,13.49910927,17.72303308
10.6622029,-3.34875536,-11.78465176,13.28614807,18.07246276
10.66452129,-3.255435228,-12.67597771,12.91226959,18.38491162
10.66682676,-3.309871912,-13.50449276,12.26381397,18.53989509
10.66915806,-3.492922783,-14.23609829,11.28096199,18.49667828
10.67147644,-3.823730469,-14.75474262,10.09412193,18.28153829
10.67378186,-4.290330887,-15.28236008,8.719446182,18.11038957
10.67611316,-4.805984497,-15.80997753,7.554739475,18.16939639
10.67843155,-5.252843857,-16.17727661,6.704689026,18.28249168
10.68073702,-5.65603447,-16.43809319,6.120840549,18.43003859
10.68306832,-6.034698486,-16.63011742,5.694917679,18.58522205
10.6853867,-6.366104603,-16.63370705,5.44785881,18.62489365
10.68769217,-6.572485447,-16.56670761,5.350351334,18.6085901
10.69002347,-6.645466805,-16.29990768,5.276174068,18.37626818
10.69234186,-6.581458569,-15.82253933,5.258825779,17.92550128
10.69464728,-6.387042046,-15.23211098,5.275575638,17.33906598
10.69697858,-6.02752018,-14.59442329,5.345565796,16.67043084
10.69929696,-5.56630373,-13.84307766,5.492125988,15.89899318
10.70160243,-5.141577721,-13.0073843,5.681159019,15.09647096
10.70393373,-4.763511658,-12.15314579,5.840281963,14.30031081
10.70625212,-4.427918434,-11.35693455,5.96590519,13.57123608
10.70855759,-4.019343853,-10.63609695,6.193223,12.94749762
10.71088889,-3.732205153,-9.976275444,6.367300987,12.409591
10.71320728,-3.47557497,-9.417551994,6.418148518,11.91480329
10.71551269,-3.287140131,-8.928219795,6.339783669,11.43290234
10.71784405,-3.146561861,-8.440083504,6.247061729,10.96182655
10.72016238,-2.990430117,-7.971090317,6.068796635,10.45520185
10.72246785,-2.711666346,-7.637889862,5.901896954,10.02611009
10.72479915,-2.406581402,-7.280162811,5.954539299,9.708189474
10.72711754,-2.08534503,-6.844669342,6.101697922,9.403663107
10.72942301,-1.855633974,-6.209972858,6.356533527,9.078141816
