Time (s),Acceleration x (m/s^2),Acceleration y (m/s^2),Acceleration z (m/s^2),Absolute acceleration (m/s^2)
60.00411171,-1.687912226,-9.564835548,11.08994198,14.74184316
60.00911756,-1.101332784,-11.13782597,11.6118784,16.12761052
60.01412156,-0.3639186621,-12.46900272,10.94629002,16.59607577
60.01909579,0.4381389022,-13.74990082,9.246406555,16.57551726
60.02410125,0.9265560508,-14.64054298,7.077260017,16.287775
60.02910594,1.745373011,-15.58625317,4.254496574,16.25048786
60.03411056,3.100491285,-16.37155151,0.7422025204,16.67907701
60.03867025,4.922478676,-16.91264153,-3.397372246,17.93907405
60.0436431,6.325480938,-17.11854172,-6.919242859,19.51748194
60.0486471,6.220136166,-16.57984734,-9.102754593,19.91084058
60.0536524,5.109226227,-15.50724411,-8.568847656,18.43919637
60.05910502,3.473986626,-13.77144814,-6.603208065,15.6628134
60.06410964,2.300827742,-12.38520527,-4.970362663,13.54221632
60.06911456,1.235408068,-11.12585545,-3.648763418,11.77388496
60.07411979,0.2298433632,-10.08198357,-2.494758129,10.38860138
60.07909448,-0.8978256583,-9.095572472,-1.388636947,9.244665601
60.08409971,-1.97042799,-8.475474358,-1.027112484,8.761918289
60.0891031,-3.062183857,-8.003816605,-1.007958889,8.628674947
60.09410833,-3.885789394,-7.366958618,-0.323217243,8.335220926
60.09911387,-4.513070107,-6.749254704,0.7781155705,8.156329118
60.10411733,-4.850652695,-6.418854713,0.5123591423,8.061826052
60.10909325,-4.79319191,-6.440402508,-0.2322375625,8.031650355
60.11409725,-4.860229492,-6.416460514,-0.7852981687,8.087613335
60.11910533,-4.364629745,-6.591237068,-1.163581967,7.990514495
60.12410748,-3.821146011,-6.823474884,-1.161187768,7.90628379
60.12866494,-3.145981073,-7.070077419,-0.8714894056,7.787341357
60.13408594,-2.375048161,-7.275979042,-0.5243301988,7.67174341
60.13912125,-1.37666595,-7.560888767,-0.2226607651,7.688421548
60.14409602,-0.7709329724,-7.862558365,-0.1843535304,7.902414056
60.14910187,-0.2250549644,-8.188169479,-0.2418143749,8.194830282
60.15365948,0.1651999205,-8.518569946,-0.4620809257,8.532692642
60.15910994,0.4285621047,-8.829815865,-0.8643068075,8.882361169
60.16411602,0.5722141862,-8.980650902,-1.132457376,9.069838995
60.16912071,0.5961562395,-9.109937668,-1.359906554,9.23015235
60.17409517,0.6224924326,-9.162610054,-1.55862534,9.315054094
60.1791001,0.6464344859,-9.232041359,-1.628057122,9.396756631
60.18410464,0.605733037,-9.332598686,-1.699883223,9.50546757
60.18910987,0.4501099288,-9.44512558,-1.762132406,9.618633312
60.19411418,0.2992752194,-9.473855972,-1.754949808,9.639676419
60.1991204,0.2106897533,-9.339780807,-1.640028119,9.485019132
60.20364556,0.0023942017,-9.141061783,-1.505952835,9.264281418
60.20909825,-0.2394201756,-8.978256226,-1.479616642,9.10250912
60.21410279,-0.5315127969,-8.779537201,-1.400607944,8.906429247
60.21910864,-0.7038952708,-8.609549522,-1.297657371,8.735200409
60.22411302,-0.8690952063,-8.444349289,-1.15400517,8.567035037
60.22911825,-0.9720458984,-8.329427719,-0.9002198577,8.434135116
60.23364564,-0.9792284966,-8.200140953,-0.5099649429,8.274132241
60.23909787,-0.9672574997,-8.145073891,0.02633621916,8.202347795
60.24410256,-0.8427590132,-8.164227486,0.3088520169,8.213418458
60.24866064,-0.6631938815,-8.207323074,0.4836287498,8.248264965
60.25411233,-0.390254885,-8.291120529,0.5291185975,8.317147648
60.25911756,-0.1651999205,-8.434772491,0.4764461517,8.449833071
60.26412164,-0.04070143029,-8.597578049,0.4261679053,8.608230015
60.26909579,0.02394201607,-8.801085472,0.3303998411,8.807317569
60.27410094,0.0718260482,-9.119514465,0.0718260482,9.120080156
60.27910864,0.0359130241,-9.284713745,-0.2202665508,9.287395568
60.2841111,-0.1268926859,-9.375694275,-0.538695395,9.392014567
60.28911602,-0.2992752194,-9.466673851,-0.895431459,9.513636369
60.29367302,-0.4309563041,-9.533711433,-1.168370485,9.614700548
60.29909518,-0.4668693244,-9.569623947,-1.616086125,9.716347247
60.30365264,-0.3663128614,-9.59835434,-2.092532396,9.830629836
60.30865694,-0.14844051,-9.622296333,-2.616862535,9.972892802
60.31366194,0.1628057212,-9.655815125,-3.002328873,10.11312267
60.31908402,0.5410895944,-9.706093788,-3.330334663,10.27580476
60.32411856,0.8762778044,-9.758766174,-3.38300705,10.36562187
60.32909356,1.194706678,-9.878476143,-3.08133769,10.41663367
60.33409756,1.321599364,-10.12986755,-2.458845139,10.50746216
60.33910433,1.438915253,-10.3166151,-1.939303398,10.59546705
60.34410841,1.549048543,-10.49378586,-1.403002143,10.69988355
60.34866625,1.556231141,-10.65898609,-0.8571242094,10.80604006
60.35364041,1.613691926,-10.77630138,-0.4548983276,10.90594359
60.3586471,1.900996208,-10.85052204,-0.3088520169,11.02011818
60.36365018,2.171540976,-10.86728191,-0.5099649429,11.09384832
60.36865479,2.379836559,-10.88404083,-0.8810662031,11.17596728
60.37365918,2.439691544,-10.9295311,-1.230619669,11.26592959
60.37866471,2.367865562,-11.08515358,-1.496376038,11.43357155
60.38408748,2.217030764,-11.32457447,-1.656787634,11.65787964
60.38909141,1.877054095,-11.59033012,-1.738190413,11.86930454
60.39364894,1.584961534,-11.73158836,-1.771709204,11.97001345
60.39865302,1.007958889,-11.94227791,-1.927332401,12.13872287
60.40410625,0.490811348,-12.07635307,-2.149993181,12.27606085
60.40911141,-0.2298433632,-12.16972733,-2.461239338,12.41824425
60.41411641,-0.7445967197,-12.21761131,-2.827552319,12.56262324
60.41912041,-1.177947283,-12.31577396,-3.093308687,12.75281956
60.42409541,-1.496376038,-12.46181965,-3.303998232,12.97892501
60.42909979,-1.778891921,-12.63659668,-3.368641853,13.1983249
60.4341041,-2.011129379,-12.75630665,-3.552995205,13.3937215
60.43911048,-2.147598982,-12.87362289,-3.799597979,13.59335472
60.44411479,-2.090138197,-12.90474701,-4.05577755,13.68760405
60.44911918,-1.723825216,-12.87601662,-4.441244125,13.72909417
60.45409333,-1.256955862,-12.91671848,-4.5394063,13.74873681
60.45909941,-0.6344634295,-12.9574194,-4.285621166,13.66249648
60.46410433,-0.009576806799,-12.97657299,-3.912125587,13.55345952
60.46910864,0.6967126727,-12.8496809,-3.165134668,13.25208607
60.47411356,1.165976286,-12.82573891,-2.664746523,13.151424
60.47911794,1.455674648,-12.85207462,-2.394201756,13.15397327
60.48409294,1.63523972,-12.8592577,-2.346317768,13.17344771
60.48909764,1.594538331,-12.71081638,-2.214636564,13.00046233
60.49431454,1.197100878,-12.49055004,-2.140416384,12.72903269
60.49913693,0.653617084,-12.2607069,-2.171540976,12.46867031
60.5041407,0.09337386489,-11.91115379,-1.838746905,12.05260526
60.50914562,-0.739808321,-11.52329254,-0.7996633649,11.57467273
60.51415139,-1.482010841,-11.57117653,0.1795651317,11.66707873
60.51912677,-1.63763392,-12.29662037,0.9911994934,12.44472554
60.52412954,-1.438915253,-13.27584839,1.759738207,13.46904993
60.52913516,-2.274491549,-14.21916389,2.506729126,14.61648469
60.53414185,-3.335123062,-14.68603325,3.052607059,15.36623013
60.5391447,-4.307168961,-14.91348267,3.730166197,15.96489303
60.54370216,-5.078101635,-15.05473995,4.345476151,16.47165669
60.54912431,-5.813121796,-15.17923832,4.211400986,16.79099637
60.55412924,-6.586448669,-15.4665432,3.545812607,17.18045551
60.55868646,-7.414842606,-15.7514534,2.834734917,17.63870452
60.56413762,-8.262390137,-16.50083733,1.288080573,18.49875333
60.56914346,-8.58081913,-17.35556793,-0.2202665508,19.36219803
60.57415016,-7.967903137,-18.15523148,-1.738190413,19.90279418
60.57867577,-7.309497833,-18.31803703,-2.406172752,19.86879228
60.58412808,-6.200982571,-17.96369553,-2.85867691,19.21766311
60.58913239,-5.492298603,-17.23346329,-2.966415882,18.32913593
60.59413793,-4.857835293,-16.39788818,-3.244143248,17.4072906
60.59914377,-4.544194698,-15.07389355,-4.273650169,16.31367702
60.60414747,-4.039018154,-14.15691471,-4.508281708,15.39663943
60.609121,-2.894589901,-13.55357552,-3.473986626,14.28798947
60.614128,-2.176329374,-13.01248646,-2.904166698,13.50908574
60.61913116,-1.963245392,-12.22479343,-1.443703651,12.46531938
60.62413608,-1.903390408,-11.76510715,-0.1604115069,11.91915992
60.62914039,-1.022324085,-11.66455078,2.202665567,11.91463919
60.63414739,0.5961562395,-11.93030739,3.952826977,12.58222865
60.63912062,1.544260144,-12.05959415,3.497928619,12.65124718
60.64412439,1.331176162,-11.68370438,1.333570361,11.83466889
60.64912954,0.9768342972,-11.37245846,0.490811348,11.42488129
60.65368747,1.331176162,-11.07318306,0.04548983276,11.15300329
60.65913908,1.989581585,-10.88643551,-0.2657563984,11.06993855
60.66369731,2.121262789,-10.54885292,-0.2322375625,10.76252703
60.66867054,1.623268723,-10.0556469,-0.04309562966,10.18591641
60.67412431,0.8427590132,-9.320627213,0.2011129409,9.360810905
60.67913016,0.248996973,-8.549694061,0.517147541,8.568938652
60.68413385,-0.3280056417,-7.702147007,0.8571242094,7.756630591
60.68913824,-0.8810662031,-6.564900875,1.209071875,6.733205474
60.69414339,-1.165976286,-5.741295815,1.565807939,6.064134961
60.69914839,-1.52510643,-4.989516258,1.745373011,5.501595138
60.70412285,-1.843535304,-4.307168961,1.788468719,5.014872604
60.70912739,-2.15478158,-3.56496644,1.70946002,4.502701738
60.71413331,-2.336740971,-3.105279684,1.59932673,4.202495243
60.71913754,-2.422932148,-2.808398485,1.426944256,3.974150495
60.72414185,-2.284068346,-2.755726099,1.019929886,3.721726953
60.72914654,-2.061407566,-2.813186884,0.7015010715,3.55746052
60.73412216,-1.78128612,-3.01190567,0.3327940404,3.51501179
60.73912593,-1.489193439,-3.239354849,-0.06943184882,3.565941351
60.74413024,-1.268926859,-3.502717018,-0.2609679997,3.73460924
60.7491357,-1.304839969,-3.687070608,-0.1364694983,3.913530495
60.75414154,-1.513135433,-3.79241538,0.03830722719,4.083314916
60.75914654,-1.685518026,-3.845088005,0.2298433632,4.204580925
60.76415139,-1.927332401,-3.849876404,0.4118026793,4.32501329
60.76912554,-2.212242365,-3.806780815,0.5722141862,4.439935307
60.77413077,-2.535459518,-3.7181952,0.5554547906,4.53454083
60.77913385,-2.964021683,-3.684676409,0.5147533417,4.756809411
60.78413977,-3.107673883,-3.627215624,0.7038952708,4.828022235
60.78914377,-3.186682463,-3.550601006,0.8762778044,4.850729369
60.79414993,-3.215412855,-3.440467834,1.000776291,4.814275847
60.7991237,-3.153163671,-3.34230566,1.079784989,4.720104224
60.8041287,-2.959233284,-3.315969467,1.031900883,4.56262365
60.809133,-2.707842112,-3.373430252,0.9528923035,4.429497072
60.81413916,-2.485181332,-3.445256233,0.787692368,4.320460164
60.819144,-2.224213362,-3.541024208,0.5841852427,4.222232812
60.82414808,-2.121262789,-3.600879431,0.3926490843,4.197649556
60.82912247,-2.090138197,-3.622427225,0.1843535304,4.186244487
60.83412931,-2.094926596,-3.622427225,-0.1292868853,4.186575157
60.83913416,-2.212242365,-3.617638826,-0.5913678408,4.281476717
60.84413724,-2.375048161,-3.699041605,-1.288080573,4.580711094
60.84914162,-2.257732153,-3.94085598,-1.877054095,4.914369991
60.85414777,-2.070984364,-4.302380562,-2.707842112,5.489249824
60.8591207,-1.848323703,-4.618414879,-3.787626982,6.252373522
60.86412554,-1.623268723,-5.02064085,-5.075707436,7.321519096
60.86913085,-1.465251446,-5.571307182,-6.438008308,8.639118965
60.87368962,-1.309628367,-6.162675381,-8.082824707,10.24820714
60.87911047,-1.134851575,-6.928819656,-9.370905876,11.70941104
60.88414562,-1.125274777,-7.845798969,-9.943120003,12.71567695
60.88915077,-1.369483352,-9.25358963,-9.967061996,13.6691891
60.89367793,-1.491587639,-10.01494598,-9.938331604,14.18782618
60.89912954,-1.436521053,-11.14022064,-10.28070164,15.22698049
60.90413485,-1.268926859,-12.31098557,-10.80982113,16.4323697
60.90913939,-1.079784989,-14.36281586,-10.97980881,18.11111859
60.91414616,-0.8475474119,-16.41704178,-11.21922874,19.90247952
60.91915116,-0.6440402865,-18.71068573,-12.25831223,22.37790801
60.92412408,-0.5434837937,-21.0354557,-14.20240402,25.38688739
60.92912808,-0.6943184733,-22.88617325,-17.29810715,28.69640247
60.93368708,-0.1508347094,-23.55655098,-18.02833939,29.66403321
60.93913947,1.436521053,-22.51986122,-15.28937244,27.25752468
60.94414316,2.67432332,-20.2094574,-13.06755257,24.21435739
60.94914747,2.86107111,-17.05868721,-11.64539719,20.85185394
60.95412316,1.903390408,-12.49773312,-11.13543224,16.84678246
60.95912708,1.048660398,-8.813055992,-11.35330486,14.41066188
60.96413262,0.4213795066,-5.647922039,-11.67891598,12.97974046
60.96913631,0.457292527,-3.545812607,-11.20246983,11.75913405
60.97414254,0.3998316824,-2.147598982,-10.40759468,10.63438168
60.97914677,0.3806780577,-1.106121182,-8.611943245,8.691029071
60.98412162,-0.07900865376,-0.8595184088,-6.816292286,6.870724473
60.98912562,-0.9528923035,-1.209071875,-5.339069843,5.556574964
60.99413201,-2.056619167,-2.114080191,-3.998316765,4.968455938
60.99913877,-3.100491285,-3.722983599,-1.905784607,5.206310407
61.004141,-3.687070608,-5.056553841,0.05746084079,6.258316719
61.00914593,-3.842693806,-6.452373505,2.171540976,7.817608953
61.01415201,-4.000710964,-8.171410561,4.197035789,10.01961817
61.01912439,-4.350264549,-10.12507915,4.71657753,11.9869985
61.02412962,-4.414907932,-12.67250919,3.818751812,13.95230328
61.02913508,-4.12999773,-14.61899567,2.473210335,15.39118855
61.03369393,-3.519476414,-16.67561531,0.7254431248,17.05840344
61.03866708,-3.066972494,-18.88067436,-0.7996633649,19.14485952
61.04367139,-2.628833532,-20.96363068,-2.140416384,21.23595911
61.04912377,-2.738966703,-22.62759972,-4.474762917,23.22786496
61.05412931,-2.755726099,-22.94842339,-7.642292023,24.34396824
61.05913331,-1.649604917,-22.54140854,-11.0229044,25.14638576
61.06413793,-0.2729389966,-21.07615662,-11.44428444,23.98438075
61.06914347,-0.4118026793,-17.06587029,-4.896142483,17.75910249
61.07414985,-1.941697598,-12.78743172,2.401384354,13.15504642
61.07912408,-4.211400986,-8.552088737,6.459556103,11.51520669
61.08412831,-6.042964935,-5.281609058,6.16506958,10.12032126
61.0891317,-8.360552788,-2.245761156,2.559401512,9.027337492
61.09413762,-10.08677197,-0.8044517636,-0.3639186621,10.12534188
61.09914224,-10.27830791,0.0023942017,-2.063801765,10.48345826
61.1041477,-9.232041359,0.3615244627,-0.9528923035,9.288126363
61.10912131,-7.460332394,0.174776718,1.328781962,7.579760407
61.11412647,-4.989516258,-0.7015010715,3.818751812,6.322202278
61.11868339,-3.275267839,-1.903390408,5.23611927,6.462756337
61.12413454,-1.256955862,-3.79241538,7.268796444,8.294441163
61.12914062,-0.07661445439,-5.916072369,9.583989143,11.26315364
61.13414685,-0.117315881,-8.353369713,12.46660805,15.00696054
61.13915085,0.02394201607,-10.17056847,13.40992355,16.83054027
61.14367785,0.215478152,-11.77707863,12.80419064,17.39808351
61.14913024,0.1867477298,-13.12022495,10.85531044,17.02976636
61.15413508,0.5339069963,-14.29338455,8.571242332,16.67489412
61.15869393,1.00556469,-15.24148846,6.078877926,16.43979585
61.16366831,2.664746523,-16.26141739,1.941697598,16.59231024
61.16911978,4.5394063,-16.89588165,-2.870647907,17.72900578
61.174125,5.803544998,-17.3028965,-7.381323814,19.68642433
61.17912931,5.35104084,-17.03235054,-10.00297451,20.46445949
61.18413331,3.780444384,-16.03875732,-9.777919769,19.16092929
61.1886917,2.336740971,-14.67406178,-8.377311707,17.05777825
61.19411447,1.216254473,-13.14895535,-6.344634533,14.65021123
61.19914831,0.1221042871,-11.72201157,-4.19464159,12.45052138
61.20412193,-0.8355764151,-10.29027843,-3.277662039,10.8319475
61.20912678,-1.881842494,-9.334992409,-2.604891539,9.872632596
61.21368585,-2.844311714,-8.576030731,-1.556231141,9.168438667
61.21913785,-3.445256233,-7.852981567,-0.09816227108,8.576056544
61.22369454,-3.962403774,-7.264008045,0.2370259613,8.277840169
61.22866954,-4.580107689,-6.785167694,0.3591302633,8.194196826
61.23367539,-5.046977043,-6.382941723,0.8595184088,8.1824626
61.23912778,-4.814739704,-6.284779549,0.940921247,7.972797827
61.2441317,-4.395754337,-6.39251852,0.8379706144,7.803149619
61.24913631,-4.09169054,-6.461950302,0.55784899,7.668763178
61.25414224,-3.493140221,-6.727706909,0.4333505034,7.592882293
61.25914593,-2.624045134,-7.06768322,0.4692635238,7.553672432
61.26415054,-1.692700624,-7.393294811,0.5626373887,7.605432558
61.26912524,-0.7422025204,-7.845798969,0.390254885,7.890483187
61.27412993,-0.1125274822,-8.176198959,0.2442085743,8.18061915
61.27913485,0.3543418646,-8.523358345,-0.007182605099,8.530723722
61.2841397,0.653617084,-8.77235508,-0.3734954596,8.804596969
61.28869731,0.8379706144,-8.980650902,-0.7996633649,9.05503986
61.29411978,0.9050082564,-9.160215378,-1.209071875,9.283880682
61.29912347,0.873883605,-9.234436035,-1.431732655,9.385538868
61.30412924,0.8619126081,-9.308655739,-1.565807939,9.478698197
61.30913393,0.8044517636,-9.354146004,-1.680729628,9.537926514
61.31413847,0.5339069963,-9.39484787,-1.714248419,9.564876937
61.31869724,0.3112462163,-9.382876396,-1.620874524,9.526934339
61.32411731,0.0359130241,-9.25358963,-1.544260144,9.381628333
61.32867516,-0.1867477298,-9.042900085,-1.398213744,9.152263018
61.33412862,-0.4189853072,-8.813055992,-1.261744261,8.912771914
61.33913331,-0.6368576288,-8.652645111,-1.180341482,8.75597288
61.34413762,-0.7781155705,-8.55448246,-1.070208192,8.656210463
61.34914247,-0.895431459,-8.42759037,-0.9672574997,8.530044784
61.3536997,-0.9385270476,-8.259995461,-0.7015010715,8.342689122
61.35912185,-1.015141487,-8.101978302,-0.1675941199,8.167046739
61.36412585,-1.015141487,-8.07324791,0.1987187415,8.139246475
61.36913078,-0.9385270476,-8.099584579,0.4477157295,8.16606103
61.37413631,-0.8595184088,-8.140285492,0.6081272364,8.208095913
61.37914154,-0.720654726,-8.133103371,0.7350199223,8.197985604
61.38414585,-0.6033388376,-8.159439087,0.5506663918,8.200225451
61.38915078,-0.5195417404,-8.243236542,0.4548983276,8.272110057
61.39412716,-0.4860229492,-8.47786808,0.3375824392,8.498495596
61.39913085,-0.4644751251,-8.748413086,0.1149216816,8.76148821
61.40413516,-0.5123591423,-9.11233139,-0.2322375625,9.129678502
61.40913939,-0.6177040339,-9.411606789,-0.6655880809,9.455311106
61.4141447,-0.653617084,-9.639056206,-1.199495077,9.735368933
61.41914962,-0.7613561153,-9.789890289,-1.831564307,9.988805876
61.42412339,-0.7781155705,-9.923966408,-2.604891539,10.28960801
61.4291287,-0.6775590777,-9.931148529,-3.112462282,10.42948795
61.43413416,-0.4932055473,-9.969455719,-3.60566783,10.61292323
61.43913916,-0.2346317619,-10.01255131,-4.005499363,10.78657781
61.44414308,0.06943184882,-10.02452278,-4.115632534,10.83671117
61.44914708,0.4213795066,-10.09395409,-3.952826977,10.84851653
61.45412285,0.7517793179,-10.13944435,-3.596091032,10.78449696
61.4591277,1.065419793,-10.21845245,-3.210624456,10.76382828
61.4641327,1.419761658,-10.32858658,-2.669534922,10.76205559
61.46913731,1.8579005,-10.50096893,-1.924938202,10.83639838
61.47414224,2.123656988,-10.52730465,-1.314416766,10.81950801
61.4791487,2.355894566,-10.48899746,-0.7230489254,10.77460471
61.48412193,2.827552319,-10.41956615,-0.2466027737,10.7992233
61.48912655,3.452438831,-10.39083576,-0.02394201607,10.94940067
61.49413139,4.079719543,-10.33337498,-0.1675941199,11.11084325
61.49913639,4.27125597,-10.38125896,-0.5123591423,11.23728958
61.5041407,4.249708176,-10.57279491,-0.940921247,11.4336934
61.50914531,4.086902142,-10.88643551,-1.30005157,11.70074277
61.51415201,3.643975019,-11.33175659,-1.805228114,12.03935671
61.51912524,3.244143248,-11.72440529,-2.11647439,12.34769649
61.52412962,2.707842112,-12.08114147,-2.420537949,12.61528407
61.52868808,1.999158382,-12.37084007,-2.499546528,12.77818654
61.53369301,1.237802267,-12.58871269,-2.48996973,12.89216006
61.53911516,0.356736064,-12.90474701,-2.475604534,13.14489916
61.54414954,-0.3519476354,-13.17768574,-2.425326347,13.40363669
61.54912347,-1.156399369,-13.44344234,-2.372653961,13.70010542
61.55368162,-1.855506301,-13.68525696,-2.552218914,14.04432209
61.55913547,-2.540247917,-13.81215,-3.114856482,14.38508526
61.56413847,-2.928108692,-13.8313036,-3.811569214,14.64263773
