Time (s),Acceleration x (m/s^2),Acceleration y (m/s^2),Acceleration z (m/s^2),Absolute acceleration (m/s^2)
50.00043267,-1.642672777,-10.6540432,2.446063042,11.05396918
50.00276407,-1.984248161,-10.59003448,2.638087034,11.09259097
50.00508256,-2.219342947,-10.54277611,2.678765059,11.10186441
50.00738808,-2.320439816,-10.48714352,2.644068956,11.06145202
50.00971949,-2.294118643,-10.40040398,2.581855536,10.95889416
50.01203798,-2.096112728,-10.29033375,2.568096876,10.81109517
50.01435647,-1.803590059,-10.17787075,2.522633314,10.63981527
50.01667496,-1.433898926,-10.03489971,2.477169752,10.43511611
50.01899345,-0.994217813,-9.875777245,2.389233351,10.20920571
50.02131188,-0.4588237405,-9.69093132,2.234896421,9.9558742
50.02363037,0.1292124242,-9.494720459,2.004587173,9.70488445
50.02594886,0.793818891,-9.248857498,1.684547186,9.43446939
50.02825444,1.444068432,-9.032905579,1.287936807,9.237829726
50.03058584,2.092523336,-8.874381065,0.8440681696,9.156732184
50.03290433,2.737389088,-8.764310837,0.3720839322,9.189390073
50.03520985,3.324228764,-8.645866394,-0.0382851623,9.262989168
50.03754126,3.868596077,-8.575876236,-0.3589234054,9.414909178
50.03985975,4.304089546,-8.527421951,-0.650847733,9.574221364
50.04216532,4.65762949,-8.5148592,-0.8147560954,9.739618429
50.04449673,4.889732838,-8.59142971,-0.9649057388,9.932431464
50.04681522,5.109274387,-8.763712883,-0.9900303483,10.19252218
50.04912074,5.216353416,-9.034700394,-0.9631111026,10.47681904
50.05145214,5.222933769,-9.312865257,-0.879960537,10.71367477
50.05377063,5.126024246,-9.670592308,-0.7447660565,10.97046748
50.05607621,5.005186558,-10.02353382,-0.5575276613,11.21757371
50.05840761,4.801796913,-10.34955597,-0.342173636,11.41436136
50.0607261,4.527220249,-10.65822983,-0.1280160099,11.5805861
50.06303162,4.237090588,-10.95314598,0.1345962733,11.74489079
50.06536303,3.888336897,-11.20558834,0.3762713671,11.86701117
50.06768152,3.607180119,-11.44726372,0.513858676,12.01314471
50.06998709,3.292523861,-11.65603733,0.6556333899,12.12987118
50.0723185,3.007179976,-11.89831066,0.7357929349,12.29448328
50.07463699,2.811566591,-12.4929266,0.7956135273,12.83008662
50.07694251,2.556730986,-12.26381397,0.9206385016,12.56127309
50.07927392,2.381456852,-12.10469151,0.8793623447,12.36803021
50.0815924,2.257628202,-12.28534985,0.851246655,12.52003701
50.08389798,2.187638044,-12.7190485,0.8632107973,12.9346468
50.08622938,2.100300074,-12.68255806,0.9529415965,12.89056388
50.08854787,2.069193363,-12.60120201,1.009172916,12.80977296
50.09086631,2.030908108,-12.78006554,1.053440213,12.98323531
50.0931848,1.973480463,-12.80997562,1.124626637,13.0097996
50.09550329,1.931606054,-12.85364532,1.162911773,13.04989134
50.09782178,1.960319996,-12.87218952,1.234696507,13.07901346
50.10014027,1.982453585,-12.97807217,1.192822099,13.18268956
50.10245876,1.938186288,-12.93141174,1.149153113,13.12625341
50.1047772,1.947757602,-12.91167068,1.082752228,13.10257043
50.10709569,1.876571178,-12.91825104,1.05822587,13.0966626
50.10941418,1.755135417,-12.82493114,0.9696913958,12.98074191
50.11173267,1.693520188,-12.81655598,0.9074779749,12.95976983
50.11405116,1.549352646,-12.73400402,0.8243274093,12.85437154
50.11636964,1.417747378,-12.61735344,0.769890666,12.72007654
50.11868808,1.256231904,-12.46720409,0.8057830334,12.5562169
50.12100657,1.099501967,-12.32184029,0.860219717,12.40067057
50.12332506,0.9032905698,-12.12503052,0.8907282352,12.19121387
50.12564355,0.7447660565,-11.91745281,0.9445667267,11.97800335
50.12796204,0.6406782866,-11.81396389,1.033699393,11.87639448
50.13028053,0.5210371017,-11.64347458,1.118046403,11.70862962
50.13259902,0.4307080805,-11.48195934,1.216152072,11.55421679
50.13491746,0.3272185028,-11.39761257,1.338186026,11.48056558
50.13723595,0.2835494876,-11.39402294,1.409372568,11.4843585
50.13955444,0.2877369225,-11.38385391,1.452443361,11.47974364
50.14187292,0.3451646566,-11.57468128,1.487737536,11.67500528
50.14419142,0.4582255483,-11.90369415,1.505683661,12.00728897
50.1465099,0.6251249313,-12.29791164,1.604985833,12.41794635
50.14882834,0.8165507317,-12.68255806,1.633699656,12.81339177
50.15114683,0.9972088337,-13.0384903,1.689931035,13.18531462
50.15346532,1.204187989,-13.31187057,1.712662816,13.47550299
50.15578381,1.329811215,-13.55414391,1.686939955,13.72330067
50.1581023,1.536192179,-13.76531029,1.657029629,13.94953049
50.16040782,1.74735868,-13.99561977,1.622333765,14.19727446
50.16273923,1.992024899,-14.19242954,1.569093466,14.41718675
50.16505772,2.240878344,-14.37847137,1.453041553,14.62440784
50.16736329,2.478366137,-14.49811268,1.32263267,14.76776649
50.1696947,2.73260355,-14.52563,1.249053478,14.83311105
50.17201319,2.985046148,-14.47657681,1.193420291,14.82922886
50.17431871,3.16869545,-14.3814621,1.189831018,14.77439612
50.17665011,3.327818155,-14.27199078,1.185643673,14.70271558
50.1789686,3.446861029,-14.10568905,1.252044439,14.57459879
50.18128709,3.512663603,-13.93520069,1.394417405,14.43859494
50.18360558,3.574278831,-13.78983688,1.541576028,14.32869593
50.18592407,3.641875982,-13.67258835,1.679761529,14.24866771
50.18824256,3.699902058,-13.55115318,1.77009058,14.15825725
50.190561,3.705285788,-13.39741421,1.783251047,14.01427253
50.19287949,3.764508247,-13.24726391,1.697109461,13.87593975
50.19519798,3.811168194,-13.15514088,1.487139225,13.77658585
50.19751647,3.845266104,-13.14018536,1.348953724,13.75755134
50.19983496,3.905086517,-13.21615791,1.2352947,13.8362742
50.20215345,3.982254982,-13.37767315,1.056431174,13.9977334
50.20447188,4.020540237,-13.48774338,0.837487936,14.0991259
50.20679037,4.023531437,-13.53141212,0.5659025311,14.12827537
50.20910886,3.975674868,-13.58584881,0.1848455518,14.15681625
50.21142735,3.909274101,-13.48235893,-0.1938186288,14.03901678
50.21374584,3.815355778,-13.29332638,-0.3966103494,13.83570619
50.21606433,3.699902058,-13.06540966,-0.442073971,13.58637679
50.21838277,3.544368505,-12.78544998,-0.3308077157,13.27176375
50.22070126,3.306282759,-12.48814106,-0.1591227055,12.91938438
50.22301975,3.023929596,-12.17228889,0.1369891018,12.54302727
50.22533824,2.722434044,-11.91984558,0.5473581553,12.23903455
50.22765673,2.418545485,-11.75234795,1.034895778,12.04317457
50.22997522,2.069791555,-11.67338562,1.513460279,11.95167482
50.23229366,1.689931035,-11.72483063,1.982453585,12.0107303
50.23461214,1.332203984,-11.84327602,2.404786825,12.15816409
50.23691772,0.9343972206,-12.04427242,2.764906645,12.39283281
50.23924912,0.5264210105,-12.4181509,3.021536827,12.79129687
50.24156761,0.06101697683,-12.72622681,3.248854876,13.13452054
50.24387319,-0.4169493318,-12.95354557,3.418147087,13.40342938
50.24620454,-0.8697910309,-13.12283802,3.367897987,13.57601381
50.24852303,-1.285543919,-13.36331654,3.050848961,13.76729935
50.2508286,-1.587637782,-13.68335629,2.50707984,14.00143858
50.25316001,-1.779063582,-14.01536083,1.825125456,14.2452269
50.2554785,-1.929811478,-14.36231995,0.9152546525,14.52026507
50.25778407,-2.053041935,-14.6261282,-0.0951147005,14.76982241
50.26011542,-2.129612207,-14.82174206,-1.225125194,15.02398807
50.26243392,-2.154138565,-14.99282837,-2.364108801,15.33017371
50.26473949,-2.08235383,-15.26202106,-3.320041418,15.75716216
50.26707089,-1.967498422,-15.58265972,-4.198805332,16.25793038
50.26938938,-1.773081541,-15.8626194,-4.911268711,16.69991236
50.27169496,-1.608574986,-16.13839149,-5.503491879,17.1266931
50.27402631,-1.417747378,-16.35613823,-5.973083496,17.47028883
50.2763448,-1.269990563,-16.62652779,-6.303293228,17.82654784
50.27865037,-1.203589797,-16.89930916,-6.501298904,18.14668471
50.28098178,-1.16769743,-17.18166351,-6.507879257,18.40993131
50.28330027,-1.214955688,-17.44188309,-6.330212116,18.59481079
50.28560584,-1.331605792,-17.62194252,-6.077171326,18.68791169
50.2879372,-1.467996716,-17.79721642,-5.709873199,18.74829535
50.29025569,-1.65463686,-17.94018745,-5.224130154,18.75845636
50.29256126,-1.884945989,-18.04068565,-4.691128731,18.73568918
50.29489267,-2.175075769,-18.06999779,-4.054039955,18.64647459
50.29721116,-2.471187592,-17.96531296,-3.198605776,18.41440514
50.29951673,-2.795415163,-17.73081589,-2.225325108,18.08723997
50.30184808,-3.116053343,-17.43889236,-1.200598717,17.75573689
50.30416657,-3.490530014,-17.04706764,-0.3194418252,17.40368806
50.30647214,-3.873381615,-16.54577065,0.5036891699,17.00056805
50.30880355,-4.253840446,-16.03909111,1.188634634,16.63611897
50.31112204,-4.660620213,-15.54437447,1.529611826,16.29995922
50.31342761,-5.032704353,-15.22134304,1.604985833,16.11190171
50.31575902,-5.327619553,-15.05025578,1.553540111,16.04079848
50.31807746,-5.59142828,-14.9461689,1.459621787,16.02443543
50.32038303,-5.831308842,-14.85165215,1.285543919,16.00713458
50.32271444,-5.901299,-14.69013596,1.183250785,15.87531123
50.32503292,-5.871986866,-14.43948841,1.506281853,15.660394
50.3273385,-5.744568825,-14.14756393,1.877169371,15.38432323
50.3296699,-5.432305813,-13.95673656,2.154736757,15.13087349
50.33198834,-5.044070244,-13.87059498,2.234298229,14.92742906
50.33429392,-4.634299278,-13.98126316,2.124228239,14.88169328
50.33662532,-4.278367043,-14.26182079,2.043470621,15.02929569
50.33894381,-3.923032761,-14.48913956,1.833500385,15.12240308
50.3412623,-3.580859184,-14.64467239,1.389631748,15.14001514
50.34358079,-3.361915827,-14.90429401,1.049252748,15.31474418
50.34589928,-3.1405797,-14.86600876,0.6699903607,15.20889031
50.34821772,-2.919841766,-14.72782326,0.03649054468,15.01451249
50.35053621,-2.741576433,-14.62852097,-0.5306084156,14.89266303
50.3528547,-2.625524759,-14.52622795,-1.016351461,14.79654179
50.35516027,-2.545365095,-14.29950809,-1.604387641,14.61262724
50.35749168,-2.425125837,-13.98066425,-2.215753794,14.36139872
50.35981017,-2.280958176,-13.666008,-2.756531715,14.12660652
50.36211569,-2.11585331,-13.42792225,-3.385843992,14.00892111
50.36444709,-1.926222205,-13.24726391,-3.839283943,13.92624983
50.36676558,-1.714457393,-13.06002617,-4.100699902,13.79562928
50.36907116,-1.466800332,-12.85663605,-4.057030678,13.56112427
50.37140256,-1.182652593,-12.61974621,-3.937389612,13.27251666
50.37372105,-0.9224331379,-12.2674036,-3.675375462,12.83933249
50.37602657,-0.6556333899,-11.84746265,-3.232105255,12.29791571
50.37835798,-0.4121637046,-11.45623684,-2.656033039,11.76731715
50.38067647,-0.1375873089,-11.13200951,-2.254637241,11.3588712
50.38298204,0.1256231815,-10.88554859,-1.972882271,11.06359859
50.38531345,0.4319044948,-10.81555843,-1.789233088,10.97106197
50.38763194,0.6628118753,-10.79162979,-2.097309113,11.01350528
50.38993746,0.7830511928,-10.60558796,-2.202593327,10.86016033
50.39226886,1.241874933,-10.32084274,-2.024327993,10.59055957
50.39458735,1.749751568,-10.15513897,-1.734796405,10.44978452
50.39689292,2.084746838,-10.13779163,-1.861017823,10.51591061
50.39922433,2.336591244,-10.01216793,-2.155334949,10.50469581
50.40154282,2.476571321,-9.793823242,-2.461018085,10.39754727
50.40384839,2.554936409,-9.533005714,-3.015554667,10.31985794
50.40617975,2.71286273,-9.327820778,-3.172882795,10.21934684
50.40849824,2.797807932,-9.263813019,-3.229712248,10.20181367
50.41080381,2.839682341,-9.200403214,-3.372683525,10.20226491
50.41313522,2.967100143,-9.025727272,-3.71186614,10.20026403
50.41545371,3.127419233,-8.887541771,-3.935595036,10.21068353
50.41775928,3.317648649,-8.874381065,-4.47756958,10.47902959
50.42009069,3.305086374,-8.510671616,-4.724030018,10.27966862
50.42240912,3.202194929,-8.051250458,-4.666602135,9.841435961
50.4247147,3.05324173,-7.569694519,-4.313062668,9.231742509
50.4270461,2.919841766,-7.191628456,-3.787838221,8.636707369
50.42936459,2.788236618,-6.900900364,-3.184846878,8.095674086
50.43167016,2.551945448,-6.602993965,-2.665006161,7.564007715
50.43400152,2.26241374,-6.350551128,-2.435893536,7.168095485
50.43632001,1.990230203,-6.15433979,-2.377269268,6.891177235
50.43862558,1.708475351,-5.969494343,-2.438884497,6.670975065
50.44095699,1.508076429,-5.777470112,-2.446661234,6.45287584
50.44327548,1.331605792,-5.570491314,-2.502294302,6.250201936
50.44558105,1.169492126,-5.329414368,-2.676970243,6.077543831
50.44791246,1.099501967,-5.182853699,-2.793022156,5.989311296
50.45023089,1.048056364,-5.05423975,-2.765504837,5.855918254
50.45253647,0.9523434043,-4.835296154,-2.834896564,5.685392281
50.45486787,0.851246655,-4.569094658,-2.966501951,5.513744706
50.45718636,0.8392825127,-4.27178669,-3.016152859,5.296200027
50.45949194,0.7764709592,-3.864408493,-3.048455954,4.982935265
50.46182334,0.7770691514,-3.533600807,-3.022135019,4.714177681
50.46414178,0.7704889178,-3.312264681,-2.904886723,4.472484473
50.46644735,0.6903293133,-3.040679455,-2.778665304,4.176513735
50.46877876,0.6035895348,-2.869592667,-2.661417007,3.960053394
50.47109725,0.5198407173,-2.765504837,-2.663211584,3.874396381
50.47340282,0.4151547253,-2.590230465,-2.608176708,3.6992206
50.47573423,0.2865405083,-2.304886341,-2.373081923,3.320560844
50.47805266,0.1734796464,-2.047657967,-2.179861546,2.99579617
50.48035824,0.08913264424,-1.790429592,-2.015354872,2.697264913
50.48268964,0.02033899166,-1.426122308,-1.751546144,2.258794459
50.48500813,0.04127619043,-1.083948612,-1.267597795,1.668368211
50.48731371,0.2081755698,-0.9547362328,-1.128215909,1.492558032
50.48964511,0.08075776696,-0.9188438654,-0.7914260626,1.215381042
50.4919636,-0.1052841991,-0.8075776696,-0.5359922647,0.9749636726
50.49426912,-0.2458625287,-0.7435696125,-0.4426721931,0.8996125956
50.49660053,-0.3930211067,-0.775872767,-0.4390829504,0.9742884471
50.49891902,-0.5700899959,-0.8039883971,-0.3684946895,1.052230147
50.50123751,-0.7196413875,-0.7830511928,-0.2321037948,1.088542635
50.503556,-0.8536394835,-0.8099704385,-0.04187439755,1.17749987
50.50587449,-0.9924231768,-0.8321040869,0.0765703246,1.2973681
50.50819292,-1.133001566,-0.8979067206,0.03768695518,1.446149831
50.51051142,-1.404586911,-1.01036942,-0.2267199457,1.745025126
50.51282991,-1.564307809,-1.037288666,0.03948157281,1.877387944
50.51514839,-1.701296926,-1.15094769,0.2679961324,2.071452085
50.51746688,-1.819741607,-1.364507079,0.2973082066,2.293846388
50.51978537,-2.056032896,-1.576870084,0.09631111473,2.592887649
50.52210386,-2.279761791,-1.717448473,-0.0382851623,2.854541791
50.5244223,-2.528017044,-1.867598057,-0.1351944804,3.145960938
50.52674079,-2.724826813,-2.001596212,-0.1884347796,3.386233339
50.52904636,-2.906083107,-2.178664923,-0.2075773627,3.637992335
50.53137777,-3.096910715,-2.318047047,-0.327816695,3.882223831
50.53369626,-3.198605776,-2.431107759,-0.4133601189,4.038840234
50.53601475,-3.290729284,-2.553141832,-0.3655036688,4.181031616
50.53833319,-3.369094372,-2.674577475,-0.3367897868,4.314810415
50.54065168,-3.46959281,-2.850450039,-0.2937189937,4.499934504
50.54297016,-3.504886866,-3.009572744,-0.1591227055,4.622453902
50.54528866,-3.468396425,-3.176471949,-0.009571290575,4.703173334
50.54760714,-3.422932863,-3.323630571,0.2015953064,4.775314673
50.54992563,-3.397209883,-3.476173162,0.4606183469,4.882313397
50.55224407,-3.357130051,-3.632902861,0.7435696125,5.002119665
50.55456256,-3.277568817,-3.827918053,0.9840483069,5.134565711
50.55688105,-3.114856958,-3.972683907,1.368694544,5.2304757
50.55919954,-2.946761131,-4.13120842,1.700100541,5.351693753
50.56151803,-2.755335331,-4.289134502,2.117648125,5.520233794
50.5638236,-2.55254364,-4.470989227,2.531606436,5.737094635
50.56615496,-2.35274291,-4.618745804,3.03948307,6.008882537
50.56847345,-2.103889227,-4.818546772,3.61615324,6.381324873
50.57077902,-1.912463546,-5.009374142,4.138985157,6.773665495
50.57311042,-1.751546144,-5.134997368,4.694717884,7.174711693
50.57542892,-1.628913999,-5.260620594,5.2737813,7.624976003
50.57773449,-1.524826288,-5.382056236,5.867201328,8.106520583
50.58006589,-1.491924882,-5.538786411,6.412166595,8.603480413
50.58238433,-1.508674622,-5.619544029,7.057032108,9.146424241
50.58468991,-1.500898004,-5.7571311,7.739584923,9.762091379
50.58702131,-1.533799291,-5.973083496,8.351549149,10.38164919
50.5893398,-1.695913076,-6.19681263,9.014959335,11.07005419
50.59164537,-2.084746838,-6.430710793,9.490532875,11.65205668
50.59397678,-2.606382132,-6.686742783,10.05523872,12.35368701
50.59629527,-3.364906788,-6.88594532,10.66062355,13.12965099
50.59860079,-4.281357765,-7.189833641,11.07876873,13.8839061
50.6009322,-5.292325497,-7.467999458,11.39701462,14.61751235
50.60325069,-6.260222435,-7.753942013,11.68116188,15.3545936
50.60555626,-7.038487911,-8.074580193,11.64347458,15.8211775
50.60788766,-7.6426754,-8.276773453,11.49631596,16.09598542
50.61020616,-8.071588516,-8.532805443,11.05065346,16.12687979
50.61251168,-8.136195183,-8.813364029,10.55593681,15.97813692
50.61484308,-7.984251022,-9.151947975,9.87757206,15.65480265
50.61716157,-7.606184959,-9.543174744,9.206983566,15.28707886
50.61946714,-7.02951479,-9.862616539,8.531609535,14.81464291
50.62179855,-6.050251961,-10.20479012,8.252246857,14.45139676
50.62411704,-5.146363258,-10.39501953,7.989634991,14.08459276
50.62642256,-4.249054909,-10.70608711,7.722835064,13.8678387
50.62875397,-3.422334671,-11.01894855,7.369893551,13.69105302
50.63107246,-2.768495798,-11.26361465,6.900900364,13.49651844
50.63337803,-2.389233351,-11.30309582,6.804589272,13.40786509
50.63570944,-2.230708838,-11.1936245,6.847660065,13.31028699
50.63802792,-2.204986095,-11.10628605,6.9619174,13.29209718
50.64033345,-2.41136694,-10.9184494,7.11625433,13.25399199
50.64266485,-2.804388046,-10.70728302,7.192226887,13.19994809
50.64498334,-3.315854073,-10.45902824,7.195217609,13.12087331
50.64730183,-3.818944931,-10.15932655,7.021738052,12.92675759
50.64962032,-4.220939159,-9.838089943,6.777669907,12.67048343
50.65193881,-4.505684853,-9.465408325,6.547360897,12.35973646
50.6542573,-4.670191765,-9.119047165,6.305087566,12.03003913
50.65657574,-4.782055855,-8.762516975,6.039484501,11.66726767
50.65889423,-4.822733879,-8.417949677,5.803193092,11.30476399
50.6611998,-4.82034111,-8.062616348,5.581258774,10.92666099
50.66353121,-4.794020176,-7.740781307,5.406582832,10.58930888
50.6658497,-4.747958183,-7.470990658,5.300102234,10.31745569
50.66815522,-4.75872612,-7.197610378,5.174479008,10.06112829
50.67048662,-4.73001194,-6.995417118,5.096712112,9.863333512
50.67280511,-4.720440865,-6.808178425,5.023731232,9.688742483
50.67511069,-4.747360229,-6.621538639,4.865206718,9.489596383
50.67744209,-4.76949358,-6.44985342,4.644468784,9.26929169
50.67976058,-4.850849628,-6.351149559,4.384847641,9.115631173
50.68206616,-4.918447018,-6.285944939,4.183252335,9.011316493
50.68439751,-4.951348305,-6.248856544,3.978067636,8.910055009
50.686716,-5.002793789,-6.22193718,3.748356581,8.819899377
50.68902157,-5.096712112,-6.190830231,3.489931822,8.745426086
50.69135298,-5.240281582,-6.102894306,3.277568817,8.686099661
50.69367147,-5.37487793,-6.014957905,3.137588739,8.655258197
50.69597704,-5.530411243,-5.874977589,3.030509949,8.618863077
50.69830839,-5.696712494,-5.672185898,2.927020311,8.555330151
50.70062688,-5.949753284,-5.424529076,2.751745939,8.508653569
50.70293246,-6.229713917,-5.137988567,2.751745939,8.531141056
50.70526386,-6.620342255,-4.796412945,2.774477959,8.633205468
50.70758235,-7.128218651,-4.505684853,2.715255499,8.859193504
50.70988793,-7.713263988,-4.179064751,2.621935368,9.156067312
50.71221933,-8.206185341,-3.873381615,2.486740828,9.408955464
50.71453777,-8.682356834,-3.731008768,2.452643156,9.763155488
50.71684334,-9.007183075,-3.617947817,2.739781857,10.08589599
50.71917475,-9.006584167,-3.747160196,3.074777126,10.22809964
50.72149324,-8.768498421,-4.054039955,2.955136061,10.10220934
50.72381173,-8.54357338,-4.520041943,2.554936409,9.997555967
50.72613022,-8.210970879,-5.146961689,2.434098721,9.991801338
50.72844866,-8.002197266,-5.733202934,2.0769701,10.06074459
50.73075423,-7.781459332,-6.290132523,1.892124534,10.18317297
